Date,x,y,hr,zScore,numUnits,cum rets
2022-04-21 00:00:00,153.59603881835938,128.75279235839844,-0.8102594745898605,1.356,0.0,1.0
2022-04-22 00:00:00,150.24752807617188,128.4627227783203,-0.8136985844772601,1.772,-1.0,1.0
2022-04-25 00:00:00,153.7992706298828,125.06861877441406,-0.8133345661255008,0.094,-1.0,1.0248968419186852
2022-04-26 00:00:00,147.88613891601562,121.74223327636719,-0.8136033297606228,0.456,-1.0,1.018934661955419
2022-04-27 00:00:00,146.831298828125,125.32970428466797,-0.816453979283637,1.578,-1.0,1.0025115295096938
2022-04-28 00:00:00,155.2799835205078,126.52877044677734,-0.8159512084085635,-0.162,-1.0,1.0247080834491225
2022-04-29 00:00:00,149.4055633544922,123.76321411132812,-0.8164391820144496,0.412,-1.0,1.0167535463885722
2022-05-02 00:00:00,153.05409240722656,126.66414642333984,-0.8169059254324212,0.359,-1.0,1.017346751610495
2022-05-03 00:00:00,153.7509002685547,128.8108367919922,-0.8182390908987774,0.745,-1.0,1.011956322871256
2022-05-04 00:00:00,159.4608154296875,132.80442810058594,-0.8191174636106768,0.45,-1.0,1.0150637013629078
2022-05-05 00:00:00,153.14120483398438,127.2249984741211,-0.8196537081084125,0.259,-1.0,1.016982797945995
2022-05-06 00:00:00,151.0991973876953,124.2853775024414,-0.8193926759315714,-0.175,-1.0,1.0219262287905386
2022-05-09 00:00:00,147.3441925048828,123.50823211669922,-0.8204277693186325,0.492,-1.0,1.0131405486467246
2022-05-10 00:00:00,150.21849060058594,121.46822357177734,-0.8189210610692204,-1.019,0.0,1.0302042613626627
2022-05-11 00:00:00,147.0925750732422,120.74935913085938,-0.8184380208122026,-0.339,0.0,1.0302042613626627
2022-05-12 00:00:00,147.9635772705078,119.79735565185547,-0.8170968635507598,-0.935,0.0,1.0302042613626627
2022-05-13 00:00:00,153.6250762939453,118.8647689819336,-0.8125896010908907,-2.597,1.0,1.0302042613626627
2022-05-16 00:00:00,152.36697387695312,117.02876281738281,-0.8078008584131189,-2.505,1.0,1.0298542606728984
2022-05-17 00:00:00,158.5607452392578,120.77851867675781,-0.8027076745468246,-2.369,1.0,1.0280562870985421
2022-05-18 00:00:00,154.76705932617188,116.14476013183594,-0.7971512841792091,-2.316,1.0,1.0250143737164765
2022-05-19 00:00:00,155.7541961669922,119.1659164428711,-0.7933564330685956,-1.435,1.0,1.036653933726344
2022-05-20 00:00:00,157.2058563232422,116.2613296508789,-0.7876951606935281,-2.083,1.0,1.0234661118490112
2022-05-23 00:00:00,156.34454345703125,119.30191802978516,-0.784566047903512,-0.944,1.0,1.0408581647935178
2022-05-24 00:00:00,156.6348876953125,117.990478515625,-0.7810070955337156,-1.125,1.0,1.0367729301100166
2022-05-25 00:00:00,157.08975219726562,119.8847885131836,-0.7786257489105812,-0.596,1.0,1.04467198593025
2022-05-26 00:00:00,158.71559143066406,122.69223022460938,-0.7774206198665111,-0.113,1.0,1.0517135460818225
2022-05-27 00:00:00,162.90615844726562,126.31566619873047,-0.7766137733705476,0.052,1.0,1.0536794575351618
2022-05-31 00:00:00,163.73257446289062,122.87680053710938,-0.7736018913998997,-0.866,1.0,1.0393029268060079
2022-06-01 00:00:00,160.20318603515625,121.7887954711914,-0.7716616915002238,-0.292,1.0,1.04726165345506
2022-06-02 00:00:00,164.54930114746094,125.11109924316406,-0.7699549089457844,-0.194,1.0,1.048252187732031
2022-06-03 00:00:00,160.66015625,121.876220703125,-0.7682890853296641,-0.166,1.0,1.0483631460499243
2022-06-06 00:00:00,160.6893310546875,123.49851989746094,-0.767675159840205,0.289,0.0,1.0552438281458494
2022-06-07 00:00:00,162.32276916503906,125.10137176513672,-0.7673788659257851,0.384,0.0,1.0552438281458494
2022-06-08 00:00:00,160.43650817871094,123.38195037841797,-0.7669777739341253,0.332,0.0,1.0552438281458494
2022-06-09 00:00:00,157.13076782226562,120.4482192993164,-0.7663832147471444,0.291,0.0,1.0552438281458494
2022-06-10 00:00:00,152.57077026367188,112.58930969238281,-0.7633803724332149,-0.831,0.0,1.0552438281458494
2022-06-13 00:00:00,143.67437744140625,110.0635757446289,-0.7628706110188832,0.535,0.0,1.0552438281458494
2022-06-14 00:00:00,143.0909881591797,108.32469940185547,-0.7618215758105994,0.196,0.0,1.0552438281458494
2022-06-15 00:00:00,145.9203338623047,110.37443542480469,-0.7607573514909008,0.29,0.0,1.0552438281458494
2022-06-16 00:00:00,139.48382568359375,105.40069580078125,-0.7597284008902502,0.318,0.0,1.0552438281458494
2022-06-17 00:00:00,140.6214141845703,106.87726593017578,-0.7591327857420926,0.583,0.0,1.0552438281458494
2022-06-21 00:00:00,144.23829650878906,107.4406967163086,-0.7573412489345573,-0.056,0.0,1.0552438281458494
2022-06-22 00:00:00,143.55767822265625,109.51956939697266,-0.7571292084030662,0.932,0.0,1.0552438281458494
2022-06-23 00:00:00,141.5061492919922,111.09329986572266,-0.7588796986842276,1.922,-1.0,1.0552438281458494
2022-06-24 00:00:00,145.54115295410156,117.55333709716797,-0.7626251939075644,2.623,-1.0,1.0427613406012453
2022-06-27 00:00:00,146.41619873046875,117.83505249023438,-0.7659660372054855,2.134,-1.0,1.0465649389402554
2022-06-28 00:00:00,144.37442016601562,115.863037109375,-0.7687566793768041,1.812,-1.0,1.050139870055194
2022-06-29 00:00:00,143.188232421875,113.86187744140625,-0.770632560253221,1.331,-1.0,1.056196200196495
2022-06-30 00:00:00,142.0409393310547,111.07386779785156,-0.7711581443050156,0.752,-1.0,1.0651646224159035
2022-07-01 00:00:00,138.94906616210938,114.49331665039062,-0.7750148233810192,2.035,-1.0,1.0414547085138144
2022-07-05 00:00:00,139.10464477539062,115.36760711669922,-0.7792574333334623,1.915,-1.0,1.0407238198553443
2022-07-06 00:00:00,140.689453125,115.98931884765625,-0.7828170061355988,1.532,-1.0,1.0456505821064446
2022-07-07 00:00:00,144.45220947265625,115.6978988647461,-0.7840787701556586,0.615,-1.0,1.0605843569383258
2022-07-08 00:00:00,145.7842254638672,114.50303649902344,-0.7837157112627061,-0.023,-1.0,1.0701418571121253
2022-07-11 00:00:00,143.47018432617188,110.90872192382812,-0.7821930489165617,-0.501,0.0,1.0771436354996609
2022-07-12 00:00:00,143.9466094970703,112.71559143066406,-0.781581842865202,-0.14,0.0,1.0771436354996609
2022-07-13 00:00:00,145.05499267578125,112.40473175048828,-0.7803799150824251,-0.492,0.0,1.0771436354996609
2022-07-14 00:00:00,149.06082153320312,111.5595932006836,-0.7768528286736984,-1.609,1.0,1.0771436354996609
2022-07-15 00:00:00,153.5916748046875,113.46359252929688,-0.7725213210265518,-1.82,1.0,1.0730486073582959
2022-07-18 00:00:00,150.94705200195312,111.62759399414062,-0.7686663337820338,-1.49,1.0,1.0765140535601014
2022-07-19 00:00:00,156.9752197265625,116.34876251220703,-0.7652652824631597,-1.241,1.0,1.0791417981668765
2022-07-20 00:00:00,158.5989227294922,116.6693344116211,-0.7616889207950323,-1.337,1.0,1.077647794801827
2022-07-21 00:00:00,160.611572265625,119.43792724609375,-0.7591828742258445,-0.847,1.0,1.084434346573852
2022-07-22 00:00:00,158.74476623535156,124.08139038085938,-0.7605375797126742,0.813,0.0,1.108312424330246
2022-07-25 00:00:00,158.52113342285156,123.24595642089844,-0.7616370525864448,0.535,0.0,1.108312424330246
2022-07-26 00:00:00,157.29605102539062,122.61451721191406,-0.7627892615835651,0.546,0.0,1.108312424330246
2022-07-27 00:00:00,163.66453552246094,123.30422973632812,-0.7614326870270445,-0.578,0.0,1.108312424330246
2022-07-28 00:00:00,164.9673614501953,126.6362533569336,-0.7613853632385994,0.093,0.0,1.108312424330246
2022-07-29 00:00:00,167.1939239501953,125.5968246459961,-0.7598741023110981,-0.607,0.0,1.108312424330246
2022-08-01 00:00:00,166.707763671875,125.61624908447266,-0.7586404895738257,-0.473,0.0,1.108312424330246
2022-08-02 00:00:00,166.0369110107422,123.03223419189453,-0.7563803701686653,-0.933,0.0,1.108312424330246
2022-08-03 00:00:00,171.47195434570312,124.57682037353516,-0.7528501485794794,-1.424,0.0,1.108312424330246
2022-08-04 00:00:00,172.05532836914062,124.46996307373047,-0.7492998510655048,-1.338,0.0,1.108312424330246
2022-08-05 00:00:00,172.3372802734375,123.7219467163086,-0.7455805253155642,-1.352,0.0,1.108312424330246
2022-08-08 00:00:00,170.98582458496094,124.62538146972656,-0.7432693170865495,-0.713,0.0,1.108312424330246
2022-08-09 00:00:00,165.64797973632812,124.15684509277344,-0.7431771895432577,0.192,0.0,1.108312424330246
2022-08-10 00:00:00,170.22743225097656,130.35540771484375,-0.7447484999809231,0.831,0.0,1.108312424330246
2022-08-11 00:00:00,169.71212768554688,130.16017150878906,-0.7463699677695228,0.811,0.0,1.108312424330246
2022-08-12 00:00:00,174.2915802001953,132.3174591064453,-0.7471561139142401,0.498,0.0,1.108312424330246
2022-08-15 00:00:00,174.90411376953125,133.13743591308594,-0.7480103874116342,0.6,0.0,1.108312424330246
2022-08-16 00:00:00,174.0776824951172,133.93789672851562,-0.7495438148354405,0.948,0.0,1.108312424330246
2022-08-17 00:00:00,165.41464233398438,130.98988342285156,-0.7528715540410583,1.718,-1.0,1.108312424330246
2022-08-18 00:00:00,165.41464233398438,130.29681396484375,-0.7556379289808086,1.335,-1.0,1.1128197164828038
2022-08-19 00:00:00,163.34365844726562,128.79356384277344,-0.7581639666982097,1.284,-1.0,1.1142088692587213
2022-08-22 00:00:00,159.29896545410156,124.19587707519531,-0.7596388480808872,0.868,-1.0,1.1214113705578028
2022-08-23 00:00:00,159.85317993164062,124.60586547851562,-0.760924648732317,0.857,-1.0,1.1222908049657947
2022-08-24 00:00:00,159.1142120361328,124.957275390625,-0.7625867550496874,1.029,-1.0,1.1196547697002106
2022-08-25 00:00:00,162.439453125,129.00831604003906,-0.7649505417509233,1.287,-1.0,1.1151879974237966
2022-08-26 00:00:00,154.2722625732422,123.03426361083984,-0.7673073903066454,1.188,-1.0,1.1155614389026536
2022-08-29 00:00:00,151.6149139404297,122.9366455078125,-0.7705429402163422,1.491,-1.0,1.109510334828037
2022-08-30 00:00:00,149.2115936279297,124.7327651977539,-0.7755951283705294,2.051,-1.0,1.0974745304506976
2022-08-31 00:00:00,148.0392303466797,123.95184326171875,-0.7804463782517381,1.764,-1.0,1.0999373540305202
2022-09-01 00:00:00,147.2185821533203,121.57003021240234,-0.7839445518753395,1.149,-1.0,1.1094585184130916
2022-09-02 00:00:00,145.20603942871094,120.80864715576172,-0.7875535353496417,1.16,-1.0,1.108215598810594
2022-09-06 00:00:00,144.8152618408203,120.74031066894531,-0.7910336329540025,1.035,-1.0,1.1093399343302481
2022-09-07 00:00:00,147.2283477783203,124.79132843017578,-0.7954554584394602,1.351,-1.0,1.1031756630247613
2022-09-08 00:00:00,148.62542724609375,124.71324920654297,-0.7989041163760656,0.852,-1.0,1.1101666138321056
2022-09-09 00:00:00,150.62818908691406,125.05490112304688,-0.8012841095874643,0.41,-1.0,1.1167458653870317
2022-09-12 00:00:00,152.0643310546875,128.442138671875,-0.8046731372440749,0.833,-1.0,1.10988342271953
2022-09-13 00:00:00,144.8347930908203,121.52122497558594,-0.8072133155190123,0.427,-1.0,1.116054548231705
2022-09-14 00:00:00,146.7887420654297,117.29447937011719,-0.8061417843700762,-1.066,0.0,1.1400191622149594
2022-09-15 00:00:00,144.4635467529297,117.56780242919922,-0.8061614410402516,-0.5,0.0,1.1400191622149594
2022-09-16 00:00:00,145.87037658691406,114.67839813232422,-0.8039110944233419,-1.45,0.0,1.1400191622149594
2022-09-19 00:00:00,146.16346740722656,116.38665771484375,-0.8025514671853596,-1.012,0.0,1.1400191622149594
2022-09-20 00:00:00,146.32955932617188,113.87794494628906,-0.799819636814104,-1.582,1.0,1.1400191622149594
2022-09-21 00:00:00,145.02041625976562,110.59807586669922,-0.7959101933033872,-2.001,1.0,1.132648876329003
2022-09-22 00:00:00,141.99183654785156,109.25098419189453,-0.7928628010895756,-1.65,1.0,1.1393931564686024
2022-09-23 00:00:00,138.65061950683594,109.64144134521484,-0.7919144815826578,-0.904,1.0,1.1538438322842808
2022-09-26 00:00:00,137.57595825195312,108.51887512207031,-0.7910242068050942,-0.985,1.0,1.1531580739180858
2022-09-27 00:00:00,138.5431671142578,108.41149139404297,-0.7896843682075124,-1.145,1.0,1.1500047649716447
2022-09-28 00:00:00,141.2493438720703,110.59807586669922,-0.7884493573464569,-1.03,1.0,1.1510139440020284
2022-09-29 00:00:00,138.71900939941406,108.94837951660156,-0.7875302180420483,-0.859,1.0,1.1531810374370428
2022-09-30 00:00:00,136.1300506591797,108.0503158569336,-0.7873976077187929,-0.533,1.0,1.1585651590460222
2022-10-03 00:00:00,141.7866668701172,111.46685028076172,-0.7867037511708677,-0.761,1.0,1.1543541908011457
2022-10-04 00:00:00,147.37490844726562,116.3085708618164,-0.7862992810769396,-0.599,1.0,1.1565293065036115
2022-10-05 00:00:00,148.3909454345703,117.3628158569336,-0.786107322689713,-0.484,1.0,1.157742142911173
2022-10-06 00:00:00,147.49212646484375,114.92243194580078,-0.7849023009027212,-0.853,1.0,1.1509967748668737
2022-10-07 00:00:00,141.58151245117188,111.64256286621094,-0.7845504131208009,-0.441,1.0,1.1573240187258298
2022-10-10 00:00:00,137.65411376953125,108.10889434814453,-0.7840151828302278,-0.518,1.0,1.1555708065048107
2022-10-11 00:00:00,135.6024932861328,108.11864471435547,-0.784495255096708,-0.089,1.0,1.1628116751352375
2022-10-12 00:00:00,135.39732360839844,107.07415771484375,-0.7844721667095015,-0.305,1.0,1.1586839244234728
2022-10-13 00:00:00,139.46148681640625,109.54383087158203,-0.7839725334931272,-0.447,1.0,1.1557193928361837
2022-10-14 00:00:00,133.58016967773438,107.69890594482422,-0.7851822523333419,0.278,0.0,1.1679699647916566
2022-10-17 00:00:00,135.9151153564453,110.60783386230469,-0.7870909851970849,0.531,0.0,1.1679699647916566
2022-10-18 00:00:00,137.84951782226562,113.95603942871094,-0.7900269224036452,1.012,0.0,1.1679699647916566
2022-10-19 00:00:00,138.07421875,111.90612030029297,-0.7914134598339105,0.374,0.0,1.1679699647916566
2022-10-20 00:00:00,138.8069305419922,105.8246841430664,-0.7884279318156514,-1.496,0.0,1.1679699647916566
2022-10-21 00:00:00,143.21302795410156,109.90499877929688,-0.7857439860191556,-1.129,0.0,1.1679699647916566
2022-10-24 00:00:00,141.20050048828125,109.28026580810547,-0.7839156425767673,-0.693,0.0,1.1679699647916566
2022-10-25 00:00:00,142.99810791015625,110.26618194580078,-0.7820532480427019,-0.714,0.0,1.1679699647916566
2022-10-26 00:00:00,138.12307739257812,110.12952423095703,-0.782628128974087,0.681,0.0,1.1679699647916566
2022-10-27 00:00:00,137.43917846679688,109.68050384521484,-0.7833952532792442,0.724,0.0,1.1679699647916566
2022-10-28 00:00:00,141.54244995117188,111.43756866455078,-0.7832074468775533,0.236,0.0,1.1679699647916566
2022-10-31 00:00:00,139.33450317382812,111.45709228515625,-0.7840477290303717,1.038,0.0,1.1679699647916566
2022-11-01 00:00:00,141.36656188964844,111.28138732910156,-0.7837969246210527,0.214,0.0,1.1679699647916566
2022-11-02 00:00:00,137.98629760742188,107.45486450195312,-0.7827528832330871,-0.244,0.0,1.1679699647916566
2022-11-03 00:00:00,134.8404541015625,107.09368896484375,-0.7830428016275193,0.671,0.0,1.1679699647916566
2022-11-04 00:00:00,140.96600341796875,112.7065658569336,-0.7839193897587999,0.946,0.0,1.1679699647916566
2022-11-07 00:00:00,145.49911499023438,113.5655746459961,-0.7830899824332621,-0.31,0.0,1.1679699647916566
2022-11-08 00:00:00,147.5605010986328,113.6827163696289,-0.7812827263625824,-1.044,0.0,1.1679699647916566
2022-11-09 00:00:00,144.8152618408203,112.05362701416016,-0.7798877433439069,-0.741,0.0,1.1679699647916566
2022-11-10 00:00:00,156.6755828857422,122.48565673828125,-0.7793820401390692,-0.04,0.0,1.1679699647916566
2022-11-11 00:00:00,160.28057861328125,127.66734313964844,-0.7804316344937752,1.134,0.0,1.1679699647916566
2022-11-14 00:00:00,157.5450897216797,125.5770034790039,-0.7815123628055184,1.004,0.0,1.1679699647916566
2022-11-15 00:00:00,161.36502075195312,127.08833312988281,-0.781606044297283,0.156,0.0,1.1679699647916566
2022-11-16 00:00:00,157.55487060546875,126.58782958984375,-0.7830874311246571,1.316,0.0,1.1679699647916566
2022-11-17 00:00:00,157.75022888183594,124.30121612548828,-0.7830828607431919,-0.008,0.0,1.1679699647916566
2022-11-18 00:00:00,158.12149047851562,126.0775146484375,-0.7838466837062853,0.696,0.0,1.1679699647916566
2022-11-21 00:00:00,155.57164001464844,126.6467056274414,-0.786090881736015,1.746,-1.0,1.1679699647916566
2022-11-22 00:00:00,164.54989624023438,129.53195190429688,-0.785795534550621,-0.37,0.0,1.1839024595699508
2022-11-23 00:00:00,165.3021697998047,130.58201599121094,-0.7856240834670494,-0.145,0.0,1.1839024595699508
2022-11-25 00:00:00,163.24078369140625,130.87644958496094,-0.7865742397309218,0.736,0.0,1.1839024595699508
2022-11-28 00:00:00,160.2317657470703,127.87342834472656,-0.7871427891831312,0.336,0.0,1.1839024595699508
2022-11-29 00:00:00,160.11448669433594,129.37493896484375,-0.7885400495801842,1.01,0.0,1.1839024595699508
2022-11-30 00:00:00,167.94976806640625,132.70179748535156,-0.788242458221271,-0.41,0.0,1.1839024595699508
2022-12-01 00:00:00,167.5296630859375,132.4466552734375,-0.7879092853754389,-0.347,0.0,1.1839024595699508
2022-12-02 00:00:00,165.4787139892578,134.74307250976562,-0.7897963045126472,1.438,0.0,1.1839024595699508
2022-12-05 00:00:00,164.70347595214844,132.0835418701172,-0.7904992922773937,0.393,0.0,1.1839024595699508
2022-12-06 00:00:00,163.39833068847656,129.58102416992188,-0.7902439970752586,-0.285,0.0,1.1839024595699508
2022-12-07 00:00:00,162.9076690673828,127.02943420410156,-0.7887513581333355,-1.25,0.0,1.1839024595699508
2022-12-08 00:00:00,166.47964477539062,127.93230438232422,-0.7862630855524515,-2.118,1.0,1.1839024595699508
2022-12-09 00:00:00,165.5277557373047,127.98139190673828,-0.7843900254373399,-1.555,1.0,1.1881983536400202
2022-12-12 00:00:00,169.04087829589844,129.85580444335938,-0.7822486406240108,-1.786,1.0,1.1862170932246345
2022-12-13 00:00:00,172.2105255126953,131.57322692871094,-0.779884661189396,-1.902,1.0,1.18488216453995
2022-12-14 00:00:00,168.47171020507812,130.29742431640625,-0.7786309059365145,-0.865,1.0,1.1919622543374646
2022-12-15 00:00:00,162.9861602783203,126.3719253540039,-0.7777468224123348,-0.569,1.0,1.193897250550811
2022-12-16 00:00:00,163.70254516601562,123.8203353881836,-0.7752698734495344,-1.841,1.0,1.1831158115435962
2022-12-19 00:00:00,162.05392456054688,123.29039001464844,-0.7733258898217532,-1.228,1.0,1.1873924170871577
2022-12-20 00:00:00,161.25906372070312,122.43660736083984,-0.771453121362098,-1.138,1.0,1.1876472566389047
2022-12-21 00:00:00,164.28150939941406,124.78208923339844,-0.7697579301758101,-0.968,1.0,1.188810671509973
2022-12-22 00:00:00,160.6898956298828,123.51611328125,-0.7690414611815025,-0.173,1.0,1.195341915059017
2022-12-23 00:00:00,160.77822875976562,124.36009216308594,-0.7688693622648302,0.238,0.0,1.1985830020578236
2022-12-27 00:00:00,159.1688690185547,124.06568145751953,-0.7692607341250318,0.636,0.0,1.1985830020578236
2022-12-28 00:00:00,157.2847442626953,121.95571899414062,-0.7692902367633161,0.28,0.0,1.1985830020578236
2022-12-29 00:00:00,160.91561889648438,124.04606628417969,-0.7689095987922963,-0.053,0.0,1.1985830020578236
2022-12-30 00:00:00,160.96466064453125,123.39834594726562,-0.768161278843972,-0.323,0.0,1.1985830020578236
2023-01-03 00:00:00,159.41419982910156,124.47785949707031,-0.7687046140517597,0.771,0.0,1.1985830020578236
2023-01-04 00:00:00,162.80955505371094,127.54957580566406,-0.7695316187076863,0.94,0.0,1.1985830020578236
2023-01-05 00:00:00,156.70578002929688,120.81732177734375,-0.7691825324480983,-0.04,0.0,1.1985830020578236
2023-01-06 00:00:00,162.4268341064453,126.10694885253906,-0.7692820827077803,0.44,0.0,1.1985830020578236
2023-01-09 00:00:00,163.97731018066406,126.47005462646484,-0.7689436753166562,0.047,0.0,1.1985830020578236
2023-01-10 00:00:00,166.0576934814453,127.36309051513672,-0.7682225403152433,-0.223,0.0,1.1985830020578236
2023-01-11 00:00:00,166.6170196533203,129.63009643554688,-0.7685510161368252,0.805,0.0,1.1985830020578236
2023-01-12 00:00:00,165.51795959472656,129.1688232421875,-0.7691212498860728,0.927,0.0,1.1985830020578236
2023-01-13 00:00:00,165.82215881347656,129.934326171875,-0.7699433234080266,1.1,0.0,1.1985830020578236
2023-01-17 00:00:00,163.79086303710938,128.1874542236328,-0.7706059285560123,0.959,0.0,1.1985830020578236
2023-01-18 00:00:00,162.89785766601562,125.40036010742188,-0.7700556921383094,-0.114,0.0,1.1985830020578236
2023-01-19 00:00:00,160.0814971923828,121.2981948852539,-0.7684258854592824,-0.988,0.0,1.1985830020578236
2023-01-20 00:00:00,162.0833740234375,128.56039428710938,-0.7699997675376078,1.943,-1.0,1.1985830020578236
2023-01-23 00:00:00,166.48947143554688,127.87342834472656,-0.7693982496779632,-0.175,-1.0,1.2141297904181174
2023-01-24 00:00:00,165.70440673828125,128.5309600830078,-0.7694096792562815,0.585,-1.0,1.2092097139378768
2023-01-25 00:00:00,165.3020782470703,125.76345825195312,-0.7681196782068905,-0.657,0.0,1.218091366391035
2023-01-26 00:00:00,167.54928588867188,125.32184600830078,-0.7656948667514469,-1.56,1.0,1.218091366391035
2023-01-27 00:00:00,167.63760375976562,124.97836303710938,-0.7632056178130846,-1.49,1.0,1.2181158176307019
2023-01-30 00:00:00,165.77308654785156,125.27278137207031,-0.7618702488728437,-0.483,1.0,1.2258225941567147
2023-01-31 00:00:00,168.26564025878906,127.91267395019531,-0.761124764660714,-0.026,1.0,1.2292069074348064
2023-02-01 00:00:00,173.2899627685547,129.55157470703125,-0.7593089574807458,-1.104,1.0,1.222043584017272
2023-02-02 00:00:00,175.94931030273438,131.926513671875,-0.7577999773141011,-0.791,1.0,1.2243853410859875
2023-02-03 00:00:00,175.47828674316406,128.29541015625,-0.7547131516609948,-2.172,1.0,1.2139052328557889
2023-02-06 00:00:00,174.2320098876953,127.02943420410156,-0.7516630191717115,-1.888,1.0,1.2147038442186933
2023-02-07 00:00:00,177.63717651367188,128.8253631591797,-0.748507318678374,-1.924,1.0,1.2139282583379758
2023-02-08 00:00:00,174.43809509277344,127.95193481445312,-0.7464520509381507,-0.976,1.0,1.2212090639974367
2023-02-09 00:00:00,175.18389892578125,126.46024322509766,-0.7435760088600734,-1.662,1.0,1.2151926049997774
2023-02-10 00:00:00,175.125,123.87922668457031,-0.7395968062594273,-2.294,1.0,1.2079299580313927
2023-02-13 00:00:00,177.07781982421875,126.34248352050781,-0.7364667929944486,-1.49,1.0,1.2140572662602171
2023-02-14 00:00:00,179.12875366210938,127.36309051513672,-0.7334293588143525,-1.372,1.0,1.21426695103479
2023-02-15 00:00:00,192.5138702392578,128.59963989257812,-0.7262876904855561,-3.418,1.0,1.1874223963983637
2023-02-16 00:00:00,190.20779418945312,127.34736633300781,-0.7199074318318253,-2.496,1.0,1.1936134812630386
2023-02-17 00:00:00,189.10873413085938,128.0967559814453,-0.7150098173797438,-1.613,1.0,1.2029818307560167
2023-02-21 00:00:00,182.49465942382812,124.43853759765625,-0.7112152739784102,-1.035,1.0,1.209918003828321
2023-02-22 00:00:00,180.3259735107422,126.87407684326172,-0.7098442790756821,0.221,0.0,1.226495256892645
2023-02-23 00:00:00,182.18064880371094,126.38105010986328,-0.7078119530204671,-0.166,0.0,1.226495256892645
2023-02-24 00:00:00,180.3567657470703,127.8995590209961,-0.7073505661677748,0.708,0.0,1.226495256892645
2023-02-27 00:00:00,180.58352661132812,129.7730255126953,-0.7078733666126557,1.181,0.0,1.226495256892645
2023-02-28 00:00:00,180.87930297851562,130.2167510986328,-0.7085156718406264,1.184,0.0,1.226495256892645
2023-03-01 00:00:00,180.5243682861328,131.37042236328125,-0.709810764631201,1.456,0.0,1.226495256892645
2023-03-02 00:00:00,181.98345947265625,132.95794677734375,-0.7112962580954845,1.489,0.0,1.226495256892645
2023-03-03 00:00:00,183.62002563476562,135.5413818359375,-0.7133630623412122,1.706,-1.0,1.226495256892645
2023-03-06 00:00:00,182.9003448486328,131.7747039794922,-0.7136403804609105,0.82,-1.0,1.2390915533946414
2023-03-07 00:00:00,182.3285369873047,129.08279418945312,-0.7126629985625125,0.269,-1.0,1.2472207597255611
2023-03-08 00:00:00,183.93553161621094,129.3786163330078,-0.7112906581106407,0.114,-1.0,1.249515063335439
2023-03-09 00:00:00,180.968017578125,125.62179565429688,-0.7092050931764557,-0.232,0.0,1.2545103734684442
2023-03-10 00:00:00,179.19342041015625,124.24134063720703,-0.7072102139129436,-0.12,0.0,1.2545103734684442
2023-03-13 00:00:00,179.97227478027344,122.96934509277344,-0.7044889410609207,-0.477,0.0,1.2545103734684442
2023-03-14 00:00:00,183.94537353515625,127.35723114013672,-0.7027705635689317,0.105,0.0,1.2545103734684442
2023-03-15 00:00:00,180.34690856933594,123.67929077148438,-0.7006872614907477,-0.111,0.0,1.2545103734684442
2023-03-16 00:00:00,183.99465942382812,124.78366088867188,-0.6980544886618647,-0.391,0.0,1.2545103734684442
2023-03-17 00:00:00,183.22569274902344,120.78032684326172,-0.6939172788934008,-1.138,0.0,1.2545103734684442
2023-03-20 00:00:00,184.4185791015625,123.56096649169922,-0.6910561690086491,-0.396,0.0,1.2545103734684442
2023-03-21 00:00:00,185.7396697998047,124.83296203613281,-0.6887021702060516,-0.141,0.0,1.2545103734684442
2023-03-22 00:00:00,183.97494506835938,121.88468933105469,-0.685735234744333,-0.467,0.0,1.2545103734684442
2023-03-23 00:00:00,186.77484130859375,121.78609466552734,-0.6820187601395634,-0.809,0.0,1.2545103734684442
2023-03-24 00:00:00,185.03970336914062,123.68915557861328,-0.680132720709438,0.165,0.0,1.2545103734684442
2023-03-27 00:00:00,182.16091918945312,124.24134063720703,-0.6797436972045736,0.865,0.0,1.2545103734684442
2023-03-28 00:00:00,181.00746154785156,124.45825958251953,-0.6799554648394425,1.077,0.0,1.2545103734684442
2023-03-29 00:00:00,186.49879455566406,126.4500732421875,-0.6793197136183539,0.6,0.0,1.2545103734684442
2023-03-30 00:00:00,191.46763610839844,128.01788330078125,-0.6778175624114806,0.157,0.0,1.2545103734684442
2023-03-31 00:00:00,194.4351348876953,131.7155303955078,-0.677244445861773,0.62,0.0,1.2545103734684442
2023-04-03 00:00:00,193.50839233398438,138.08535766601562,-0.6801717568148377,2.179,-1.0,1.2545103734684442
2023-04-04 00:00:00,192.36477661132812,136.38938903808594,-0.6825354888725021,1.679,-1.0,1.259638831917575
2023-04-05 00:00:00,187.6818389892578,137.0105743408203,-0.6864982828309073,2.329,-1.0,1.2480771707144909
2023-04-06 00:00:00,184.5270233154297,136.14288330078125,-0.6908077223293769,2.298,-1.0,1.246169557865738
2023-04-10 00:00:00,188.253662109375,136.40908813476562,-0.6936277689855965,1.502,-1.0,1.2568032948654158
2023-04-11 00:00:00,186.73541259765625,137.35569763183594,-0.697088136038414,1.718,-1.0,1.2517438512459118
2023-04-12 00:00:00,184.6453399658203,136.0836944580078,-0.7003579146731547,1.503,-1.0,1.2533217914430819
2023-04-13 00:00:00,186.42979431152344,137.34584045410156,-0.7033323434632637,1.287,-1.0,1.255341149384223
2023-04-14 00:00:00,185.84811401367188,136.48797607421875,-0.705807579120401,1.021,-1.0,1.2587363685138422
2023-04-17 00:00:00,186.89315795898438,138.9629364013672,-0.7088771644403131,1.231,-1.0,1.2544494361940968
2023-04-18 00:00:00,186.90301513671875,139.63345336914062,-0.7120171619535605,1.192,-1.0,1.254168353780878
2023-04-19 00:00:00,185.88754272460938,138.5882568359375,-0.714720968777986,0.981,-1.0,1.2572067732500556
2023-04-20 00:00:00,184.3397216796875,139.47569274902344,-0.7181293218534027,1.232,-1.0,1.2521842467489135
2023-04-21 00:00:00,183.70875549316406,139.998291015625,-0.721743201447204,1.258,-1.0,1.2510403544760298
2023-04-24 00:00:00,184.32000732421875,140.96463012695312,-0.7253022197939439,1.167,-1.0,1.2515166876817256
2023-04-25 00:00:00,178.58218383789062,138.46990966796875,-0.7293627881803898,1.278,-1.0,1.2480119742440845
2023-04-26 00:00:00,178.1089630126953,135.7188720703125,-0.7319310214748997,0.66,-1.0,1.2587729786288528
2023-04-27 00:00:00,175.1118927001953,136.99085998535156,-0.7359156253261752,1.147,-1.0,1.248361854765251
2023-04-28 00:00:00,177.33998107910156,138.30230712890625,-0.7394757825933242,0.9,-1.0,1.2519232889434333
2023-05-01 00:00:00,179.96240234375,137.8092803955078,-0.7415109958326329,0.296,-1.0,1.2622402317528183
2023-05-02 00:00:00,181.0666046142578,137.65151977539062,-0.7428115609628496,0.015,-1.0,1.266693761647495
2023-05-03 00:00:00,179.8145294189453,136.40908813476562,-0.7438074997814633,-0.124,-1.0,1.2685129294632929
2023-05-04 00:00:00,178.76950073242188,133.60874938964844,-0.7437010116208099,-0.599,0.0,1.2760309485931567
2023-05-05 00:00:00,180.8004150390625,136.10340881347656,-0.7440371528565263,-0.481,0.0,1.2760309485931567
2023-05-08 00:00:00,181.91445922851562,136.7443389892578,-0.7442718447520551,-0.6,0.0,1.2760309485931567
2023-05-09 00:00:00,177.08364868164062,135.8331298828125,-0.7458121888695913,-0.05,0.0,1.2760309485931567
2023-05-10 00:00:00,178.8680877685547,135.5557861328125,-0.7464846460224575,-0.594,0.0,1.2760309485931567
2023-05-11 00:00:00,178.03994750976562,135.9321746826172,-0.7475501026514568,-0.498,0.0,1.2760309485931567
2023-05-12 00:00:00,178.02023315429688,136.78396606445312,-0.7489734945192322,-0.38,0.0,1.2760309485931567
2023-05-15 00:00:00,181.76657104492188,139.28985595703125,-0.7501384960224994,-0.599,0.0,1.2760309485931567
2023-05-16 00:00:00,180.20887756347656,138.00225830078125,-0.7511261941949905,-0.726,0.0,1.2760309485931567
2023-05-17 00:00:00,185.30589294433594,141.0529022216797,-0.751628239271692,-1.095,0.0,1.2760309485931567
2023-05-18 00:00:00,189.54515075683594,141.2113800048828,-0.7505602874012177,-2.191,1.0,1.2760309485931567
2023-05-19 00:00:00,187.83958435058594,141.04298400878906,-0.7500670545246254,-1.741,1.0,1.2803027911477778
2023-05-22 00:00:00,188.60858154296875,139.33937072753906,-0.7485269834700847,-2.224,1.0,1.273208978125138
2023-05-23 00:00:00,185.26644897460938,135.5756072998047,-0.7464606160295628,-2.251,1.0,1.2699984790737093
2023-05-24 00:00:00,170.75430297851562,132.138671875,-0.7482014147608268,0.072,1.0,1.2973114277165994
2023-05-25 00:00:00,169.95574951171875,131.77218627929688,-0.7501055493085599,0.087,1.0,1.2969541552079373
2023-05-26 00:00:00,174.03729248046875,132.4556121826172,-0.7506771530521983,-0.719,1.0,1.2875370931959256
2023-05-30 00:00:00,174.92457580566406,133.06971740722656,-0.7511083559928496,-0.715,1.0,1.2870554040218485
2023-05-31 00:00:00,175.180908203125,130.03884887695312,-0.7498806607771534,-1.629,1.0,1.2755470204496193
2023-06-01 00:00:00,177.86248779296875,133.69371032714844,-0.7495009891359601,-0.993,1.0,1.2819571869143382
2023-06-02 00:00:00,178.1101531982422,138.24986267089844,-0.7513901258692716,0.372,0.0,1.2967838972961787
2023-06-05 00:00:00,173.33544921875,136.60568237304688,-0.7542070920623636,0.874,0.0,1.2967838972961787
2023-06-06 00:00:00,176.29734802246094,137.89329528808594,-0.7563519940959141,0.452,0.0,1.2967838972961787
2023-06-07 00:00:00,178.67477416992188,140.4982452392578,-0.7586784545228047,0.598,0.0,1.2967838972961787
2023-06-08 00:00:00,179.97247314453125,139.82470703125,-0.75996897177878,-0.017,0.0,1.2967838972961787
2023-06-09 00:00:00,180.74514770507812,138.33900451660156,-0.7600471725657686,-0.716,0.0,1.2967838972961787
2023-06-12 00:00:00,185.8962860107422,138.65597534179688,-0.7582547529107748,-1.794,1.0,1.2967838972961787
2023-06-13 00:00:00,190.56199645996094,139.97328186035156,-0.755438117487272,-2.241,1.0,1.2908537717561155
2023-06-14 00:00:00,190.08651733398438,139.35919189453125,-0.7527240083080143,-1.962,1.0,1.291777928804629
2023-06-15 00:00:00,187.8774871826172,139.92376708984375,-0.7513803470793022,-1.076,1.0,1.3006000077468118
2023-06-16 00:00:00,186.58970642089844,141.7165069580078,-0.7515932663414547,-0.032,1.0,1.3102491152970872
2023-06-20 00:00:00,186.21327209472656,140.68641662597656,-0.7514939329469507,-0.277,1.0,1.3076525227940563
2023-06-21 00:00:00,183.6971435546875,140.9835662841797,-0.7524657756428859,0.52,0.0,1.3148495598853729
2023-06-22 00:00:00,184.36083984375,139.42852783203125,-0.7523902342072952,-0.263,0.0,1.3148495598853729
2023-06-23 00:00:00,184.1924591064453,137.56643676757812,-0.7514176388280235,-0.853,0.0,1.3148495598853729
2023-06-26 00:00:00,184.58868408203125,139.73558044433594,-0.7514099747369858,-0.113,0.0,1.3148495598853729
2023-06-27 00:00:00,190.57191467285156,143.0536346435547,-0.7508726591510018,-0.516,0.0,1.3148495598853729
2023-06-28 00:00:00,188.11520385742188,141.93441772460938,-0.7507156992490984,-0.19,0.0,1.3148495598853729
2023-06-29 00:00:00,187.6991729736328,143.9846954345703,-0.7517445120730198,0.655,0.0,1.3148495598853729
2023-06-30 00:00:00,192.97906494140625,146.88677978515625,-0.7522130021439545,0.214,0.0,1.3148495598853729
2023-07-03 00:00:00,192.5035858154297,147.64944458007812,-0.7531524766896218,0.599,0.0,1.3148495598853729
2023-07-05 00:00:00,188.21429443359375,144.78697204589844,-0.75420361774686,0.668,0.0,1.3148495598853729
2023-07-06 00:00:00,184.44009399414062,143.8460235595703,-0.7560882285183025,1.245,0.0,1.3148495598853729
2023-07-07 00:00:00,183.568359375,145.371337890625,-0.75890525041845,1.758,-1.0,1.3148495598853729
2023-07-10 00:00:00,189.25442504882812,146.49058532714844,-0.7599635391818677,0.458,-1.0,1.3265478859482156
2023-07-11 00:00:00,189.1553497314453,149.15493774414062,-0.7621661081056483,1.25,-1.0,1.3186282190499166
2023-07-12 00:00:00,193.5635223388672,150.2246551513672,-0.7631098647104547,0.301,-1.0,1.3269277479099548
2023-07-13 00:00:00,196.4065704345703,150.06617736816406,-0.7627856796708473,-0.609,0.0,1.3344785896370805
2023-07-14 00:00:00,190.165771484375,148.31304931640625,-0.7638762328273906,0.51,0.0,1.3344785896370805
2023-07-17 00:00:00,194.51451110839844,149.75912475585938,-0.764032206426564,-0.213,0.0,1.3344785896370805
2023-07-18 00:00:00,194.6531982421875,149.92750549316406,-0.7641603326312169,-0.19,0.0,1.3344785896370805
2023-07-19 00:00:00,193.94985961914062,148.8280792236328,-0.764007531822946,-0.391,0.0,1.3344785896370805
2023-07-20 00:00:00,187.86756896972656,148.29324340820312,-0.7658150902314177,1.06,0.0,1.3344785896370805
2023-07-21 00:00:00,190.15586853027344,147.92677307128906,-0.7665401156098092,0.13,0.0,1.3344785896370805
2023-07-24 00:00:00,190.56199645996094,144.47991943359375,-0.7653607169020283,-1.225,0.0,1.3344785896370805
2023-07-25 00:00:00,193.8210906982422,145.6090545654297,-0.7635552772828116,-1.548,1.0,1.3344785896370805
2023-07-26 00:00:00,189.7200164794922,144.78697204589844,-0.762985484621757,-0.524,1.0,1.3428277313218693
2023-07-27 00:00:00,193.61306762695312,143.4201202392578,-0.7604650250786553,-1.959,1.0,1.3295845907273347
2023-07-28 00:00:00,196.55514526367188,144.02432250976562,-0.7573219314826448,-2.13,1.0,1.3261177982078258
2023-07-31 00:00:00,197.65472412109375,142.5286865234375,-0.7533534777138438,-2.386,1.0,1.3208198742769577
2023-08-01 00:00:00,197.6051788330078,144.16297912597656,-0.750515360844755,-1.565,1.0,1.3284529792887274
2023-08-02 00:00:00,190.6511688232422,140.41900634765625,-0.748684750877627,-0.993,1.0,1.3348950904575003
2023-08-03 00:00:00,189.69029235839844,138.9431915283203,-0.7467046782313407,-1.149,1.0,1.3335378561427742
2023-08-04 00:00:00,186.57980346679688,139.23043823242188,-0.7461240705753533,-0.222,1.0,1.3433000033593396
2023-08-07 00:00:00,188.3133544921875,141.89479064941406,-0.7463050153635347,0.245,0.0,1.3480332648974465
2023-08-08 00:00:00,184.8561553955078,141.96412658691406,-0.747761736985121,1.027,0.0,1.3480332648974465
2023-08-09 00:00:00,183.07305908203125,138.74038696289062,-0.7482526572634579,0.36,0.0,1.3480332648974465
2023-08-10 00:00:00,182.97401428222656,138.75033569335938,-0.7486986386181066,0.35,0.0,1.3480332648974465
2023-08-11 00:00:00,181.4881134033203,135.95443725585938,-0.7482982658500588,-0.215,0.0,1.3480332648974465
2023-08-14 00:00:00,183.64761352539062,138.92942810058594,-0.7485458177991193,0.234,0.0,1.3480332648974465
2023-08-15 00:00:00,179.61585998535156,138.17323303222656,-0.7498928242743209,0.885,0.0,1.3480332648974465
2023-08-16 00:00:00,175.50486755371094,136.9494171142578,-0.7520822319415092,1.31,0.0,1.3480332648974465
2023-08-17 00:00:00,173.8406524658203,137.37725830078125,-0.7549554880431035,1.61,-1.0,1.3480332648974465
2023-08-18 00:00:00,174.09820556640625,138.82992553710938,-0.7582481206048679,1.7,-1.0,1.3455041488328088
2023-08-21 00:00:00,175.5543975830078,137.90460205078125,-0.7602943936104993,0.944,-1.0,1.3543063135634026
2023-08-22 00:00:00,174.99966430664062,137.66580200195312,-0.7622014689860551,0.878,-1.0,1.3548625819736115
2023-08-23 00:00:00,175.81195068359375,137.1583709716797,-0.76338482909912,0.495,-1.0,1.3597806018734127
2023-08-24 00:00:00,172.0575714111328,136.56137084960938,-0.7655633354461505,1.094,-1.0,1.352720101535837
2023-08-25 00:00:00,176.48556518554688,137.67575073242188,-0.7664748786026441,0.35,-1.0,1.3616463748444105
2023-08-28 00:00:00,178.6351776123047,138.13343811035156,-0.7666505295565837,0.009,-1.0,1.3660861573635574
2023-08-29 00:00:00,180.84420776367188,140.2527618408203,-0.7669862655990176,0.133,-1.0,1.3647775232418384
2023-08-30 00:00:00,179.863525390625,141.32733154296875,-0.7682109252941881,0.608,-1.0,1.359029883251019
2023-08-31 00:00:00,180.071533203125,141.04873657226562,-0.7691512994945681,0.424,-1.0,1.3612038103336086
2023-09-01 00:00:00,181.57444763183594,141.2974853515625,-0.7695402568962125,0.113,-1.0,1.364683358045323
2023-09-05 00:00:00,180.68862915039062,135.7852783203125,-0.7674587840744848,-1.216,0.0,1.3809133906705096
2023-09-06 00:00:00,181.32562255859375,136.3623809814453,-0.7654870084950208,-1.035,0.0,1.3809133906705096
2023-09-07 00:00:00,177.62307739257812,135.49673461914062,-0.7646786028712222,-0.362,0.0,1.3809133906705096
2023-09-08 00:00:00,176.63772583007812,135.01914978027344,-0.7641362708242593,-0.23,0.0,1.3809133906705096
2023-09-11 00:00:00,176.81686401367188,135.6658935546875,-0.7639094736594979,-0.08,0.0,1.3809133906705096
2023-09-12 00:00:00,174.22906494140625,133.16847229003906,-0.7634568519474938,-0.242,0.0,1.3809133906705096
2023-09-13 00:00:00,175.34381103515625,132.3326873779297,-0.7621838709982214,-0.683,0.0,1.3809133906705096
2023-09-14 00:00:00,178.82740783691406,133.71571350097656,-0.7603423259592434,-1.009,0.0,1.3809133906705096
2023-09-15 00:00:00,177.30458068847656,133.12867736816406,-0.758923567951112,-0.816,0.0,1.3809133906705096
2023-09-18 00:00:00,178.87716674804688,131.82525634765625,-0.7563972431084469,-1.617,1.0,1.3809133906705096
2023-09-19 00:00:00,177.91171264648438,131.54666137695312,-0.754268652463471,-1.376,1.0,1.384038149471113
2023-09-20 00:00:00,175.25424194335938,130.14373779296875,-0.7526506855700122,-1.07,1.0,1.3874156817193526
2023-09-21 00:00:00,173.0247344970703,127.64631652832031,-0.750783904373059,-1.263,1.0,1.3854883640421685
2023-09-22 00:00:00,174.65704345703125,129.4770965576172,-0.7493709235101769,-0.926,1.0,1.38876097033292
2023-09-25 00:00:00,174.60728454589844,131.38746643066406,-0.7490905358092184,-0.194,1.0,1.3963762881764379
2023-09-26 00:00:00,171.53176879882812,127.9647216796875,-0.7483241717019613,-0.513,1.0,1.392523971701835
2023-09-27 00:00:00,171.99957275390625,127.38762664794922,-0.7471259622145906,-0.74,1.0,1.389706104095887
2023-09-28 00:00:00,175.5826873779297,129.90493774414062,-0.7459285110654179,-0.688,1.0,1.3898997770227886
2023-09-29 00:00:00,174.2688751220703,129.1487579345703,-0.7449512375870877,-0.535,1.0,1.3914217204497055
2023-10-02 00:00:00,174.60728454589844,128.7209014892578,-0.7437248206386795,-0.671,1.0,1.3896202956713142
2023-10-03 00:00:00,170.70565795898438,128.0045166015625,-0.7437089377721876,0.139,1.0,1.3982022862299452
2023-10-04 00:00:00,172.9749755859375,132.5515899658203,-0.745220854515114,1.117,0.0,1.40813832257821
2023-10-05 00:00:00,171.29290771484375,130.67108154296875,-0.7463601088313052,0.898,0.0,1.40813832257821
2023-10-06 00:00:00,173.1541290283203,132.46205139160156,-0.747586877582845,1.107,0.0,1.40813832257821
2023-10-09 00:00:00,172.50718688964844,128.1139678955078,-0.746725531999167,-0.432,0.0,1.40813832257821
2023-10-10 00:00:00,175.14476013183594,129.6263427734375,-0.7455960483277482,-0.503,0.0,1.40813832257821
2023-10-11 00:00:00,174.09967041015625,131.8551025390625,-0.7460986044853921,0.892,0.0,1.40813832257821
2023-10-12 00:00:00,172.78587341308594,129.40744018554688,-0.7458884478030205,0.296,0.0,1.40813832257821
2023-10-13 00:00:00,170.2677459716797,127.81547546386719,-0.7458063327569261,0.486,0.0,1.40813832257821
2023-10-16 00:00:00,171.93984985351562,129.6959991455078,-0.7460646265322955,0.792,0.0,1.40813832257821
2023-10-17 00:00:00,171.80050659179688,130.79046630859375,-0.7469366328019632,1.311,0.0,1.40813832257821
2023-10-18 00:00:00,170.466796875,127.13888549804688,-0.7463932169384934,0.03,0.0,1.40813832257821
2023-10-19 00:00:00,167.9287567138672,123.71614074707031,-0.745029027298269,-0.632,0.0,1.40813832257821
2023-10-20 00:00:00,165.73907470703125,124.09423828125,-0.744779509556405,0.538,0.0,1.40813832257821
2023-10-23 00:00:00,163.10150146484375,123.06940460205078,-0.7451012224181267,0.985,0.0,1.40813832257821
2023-10-24 00:00:00,164.15652465820312,122.2336196899414,-0.7445780436725425,0.058,0.0,1.40813832257821
2023-10-25 00:00:00,159.04063415527344,120.87049865722656,-0.7453393354424513,1.353,0.0,1.40813832257821
2023-10-26 00:00:00,160.10562133789062,121.39783477783203,-0.7459705261567854,1.087,0.0,1.40813832257821
2023-10-27 00:00:00,159.81698608398438,120.11431121826172,-0.7459757055166756,0.476,0.0,1.40813832257821
2023-10-30 00:00:00,155.1489715576172,121.20878601074219,-0.7483935219259664,2.487,-1.0,1.40813832257821
2023-10-31 00:00:00,156.59217834472656,122.15401458740234,-0.7506881412976704,2.024,-1.0,1.4101999216767505
2023-11-01 00:00:00,158.49322509765625,122.35301971435547,-0.752127956344611,1.252,-1.0,1.4162286011756873
2023-11-02 00:00:00,163.5692901611328,124.2932357788086,-0.7523822164294846,0.299,-1.0,1.423987432835018
2023-11-03 00:00:00,167.13250732421875,127.66622161865234,-0.7529180902642421,0.548,-1.0,1.4216106485800295
2023-11-06 00:00:00,166.78414916992188,127.1090316772461,-0.7532626019562068,0.319,-1.0,1.4230048167794813
2023-11-07 00:00:00,167.3216094970703,127.16873168945312,-0.7533788684681668,0.079,-1.0,1.424444651808555
2023-11-08 00:00:00,168.1178741455078,128.90000915527344,-0.7540795669879351,0.602,-1.0,1.420480277182237
2023-11-09 00:00:00,166.34622192382812,127.37000274658203,-0.7546461283356505,0.389,-1.0,1.4216201827513844
2023-11-10 00:00:00,171.5118865966797,128.80999755859375,-0.7538354830124264,-0.983,0.0,1.430605859074357
2023-11-13 00:00:00,169.8596649169922,129.27999877929688,-0.7539393835483491,0.003,0.0,1.430605859074357
2023-11-14 00:00:00,176.74720764160156,133.50999450683594,-0.7535730236300352,-0.582,0.0,1.430605859074357
2023-11-15 00:00:00,179.93218994140625,133.6199951171875,-0.7520052948181484,-1.786,1.0,1.430605859074357
2023-11-16 00:00:00,178.99659729003906,135.16000366210938,-0.751708119648613,-0.414,1.0,1.4391214694456977
2023-11-17 00:00:00,182.19155883789062,135.8699951171875,-0.7506260031684723,-1.359,1.0,1.4336395081399131
2023-11-20 00:00:00,182.95794677734375,135.55999755859375,-0.7491499940048837,-1.626,1.0,1.431382835743601
2023-11-21 00:00:00,180.39999389648438,136.5800018310547,-0.7493194940993978,0.164,1.0,1.4420751613870075
2023-11-22 00:00:00,181.81333923339844,136.63999938964844,-0.7490454453915045,-0.388,1.0,1.438595938852203
2023-11-24 00:00:00,182.19155883789062,136.4499969482422,-0.748531623279427,-0.584,1.0,1.4372042391359663
2023-11-27 00:00:00,182.90817260742188,137.2899932861328,-0.7482104795854428,-0.379,1.0,1.4385259107168762
2023-11-28 00:00:00,182.34085083007812,138.0800018310547,-0.7485493861164314,0.334,0.0,1.442724051005442
2023-11-29 00:00:00,181.8531494140625,139.5500030517578,-0.7498225972166667,1.351,0.0,1.442724051005442
2023-11-30 00:00:00,182.52000427246094,141.99000549316406,-0.7520057960612911,2.118,-1.0,1.442724051005442
2023-12-01 00:00:00,183.07000732421875,143.6300048828125,-0.7546474019475995,2.279,-1.0,1.440088000285579
2023-12-04 00:00:00,183.25999450683594,143.14999389648438,-0.7567471480338576,1.599,-1.0,1.443665257888702
2023-12-05 00:00:00,180.6300048828125,142.64999389648438,-0.7593729566511283,1.972,-1.0,1.440034518355833
2023-12-06 00:00:00,180.57000732421875,142.6999969482422,-0.7618321514666234,1.662,-1.0,1.4412779645644158
2023-12-07 00:00:00,184.3800048828125,144.97999572753906,-0.7637413636531665,1.127,-1.0,1.4446880592979316
2023-12-08 00:00:00,184.8800048828125,143.97999572753906,-0.7647504474678661,0.324,-1.0,1.4501842440726613
2023-12-11 00:00:00,190.1300048828125,145.83999633789062,-0.7645444069621695,-0.706,0.0,1.4574498491830936
2023-12-12 00:00:00,190.97000122070312,145.3699951171875,-0.7637478913122324,-1.164,0.0,1.4574498491830936
2023-12-13 00:00:00,192.27000427246094,147.47000122070312,-0.7635471348616557,-0.576,0.0,1.4574498491830936
2023-12-14 00:00:00,200.1699981689453,149.14999389648438,-0.7612683088560309,-2.21,1.0,1.4574498491830936
2023-12-15 00:00:00,200.8800048828125,148.67999267578125,-0.7586396628634228,-2.186,1.0,1.4558473795030082
2023-12-18 00:00:00,196.58999633789062,148.75,-0.7578681294031238,-0.698,1.0,1.4675228748266187
2023-12-19 00:00:00,197.8300018310547,149.50999450683594,-0.7571734608082791,-0.67,1.0,1.4673814126885416
2023-12-20 00:00:00,192.19000244140625,146.32000732421875,-0.7570676736648259,-0.162,1.0,1.4711535966260758
2023-12-21 00:00:00,196.27999877929688,147.75,-0.7562030073568595,-0.789,1.0,1.4661002265793535
2023-12-22 00:00:00,197.10000610351562,148.75,-0.755568604501523,-0.542,1.0,1.4677965494582268
2023-12-26 00:00:00,198.8699951171875,149.69000244140625,-0.7548182114235287,-0.622,1.0,1.4669689495800127
2023-12-27 00:00:00,199.35000610351562,150.16000366210938,-0.7541869593435209,-0.502,1.0,1.4677460368150714
2023-12-28 00:00:00,200.24000549316406,150.3800048828125,-0.7534105390593429,-0.595,1.0,1.4667642567428896
2023-12-29 00:00:00,198.55999755859375,149.5500030517578,-0.7529072709207205,-0.343,1.0,1.468555487857793
2024-01-02 00:00:00,193.5800018310547,147.27999877929688,-0.7531567687209475,0.249,0.0,1.4734387690145663
2024-01-03 00:00:00,188.9600067138672,145.6199951171875,-0.7542717996052867,0.908,0.0,1.4734387690145663
2024-01-04 00:00:00,186.07000732421875,144.91000366210938,-0.7560215475031268,1.312,0.0,1.4734387690145663
2024-01-05 00:00:00,186.5500030517578,145.94000244140625,-0.7579652692163382,1.351,0.0,1.4734387690145663
2024-01-08 00:00:00,188.97999572753906,147.38999938964844,-0.7595633827979921,1.011,0.0,1.4734387690145663
2024-01-09 00:00:00,189.75999450683594,146.22999572753906,-0.7601752291393784,0.221,0.0,1.4734387690145663
2024-01-10 00:00:00,188.3699951171875,147.2899932861328,-0.7616913415676749,0.918,0.0,1.4734387690145663
2024-01-11 00:00:00,188.9600067138672,146.38999938964844,-0.7624742244070205,0.285,0.0,1.4734387690145663
2024-01-12 00:00:00,188.36000061035156,145.5500030517578,-0.7629732635319375,0.071,0.0,1.4734387690145663
2024-01-16 00:00:00,187.7899932861328,143.75999450683594,-0.7627715796600076,-0.484,0.0,1.4734387690145663
2024-01-17 00:00:00,185.42999267578125,143.0800018310547,-0.7630892414395503,-0.055,0.0,1.4734387690145663
2024-01-18 00:00:00,189.97000122070312,144.9499969482422,-0.7626431453399072,-0.664,0.0,1.4734387690145663
2024-01-19 00:00:00,194.77000427246094,141.38999938964844,-0.7587732138226415,-2.824,1.0,1.4734387690145663
2024-01-22 00:00:00,197.30999755859375,142.13999938964844,-0.7545611307834097,-2.577,1.0,1.4722491949128118
2024-01-23 00:00:00,201.3699951171875,142.44000244140625,-0.7494430938223006,-2.733,1.0,1.4663420444480937
2024-01-24 00:00:00,198.3000030517578,141.02999877929688,-0.7452037940564499,-2.018,1.0,1.472337232759252
2024-01-25 00:00:00,197.3000030517578,142.7899932861328,-0.742582137219167,-1.093,1.0,1.4827846438941914
2024-01-26 00:00:00,193.92999267578125,143.0399932861328,-0.7415659532892712,-0.191,1.0,1.4930672263883076
2024-01-29 00:00:00,197.1999969482422,142.86000061035156,-0.739495284433924,-0.803,1.0,1.4854583993671486
2024-01-30 00:00:00,194.74000549316406,143.07000732421875,-0.7385197628028657,-0.094,1.0,1.4931935484150978
2024-01-31 00:00:00,192.36000061035156,141.0399932861328,-0.7375531122168452,-0.109,1.0,1.4928881977892106
2024-02-01 00:00:00,192.00999450683594,141.5,-0.737009506180273,0.142,1.0,1.4957945379259447
2024-02-02 00:00:00,192.10000610351562,140.08999633789062,-0.7358413983995743,-0.23,1.0,1.4913462479970037
2024-02-05 00:00:00,192.55999755859375,137.57000732421875,-0.7334112049744101,-0.965,1.0,1.4827718258995122
2024-02-06 00:00:00,189.7100067138672,139.88999938964844,-0.7332112526343675,0.376,0.0,1.4987156945983795
2024-02-07 00:00:00,191.97000122070312,139.3699951171875,-0.7321049260439007,-0.231,0.0,1.4987156945983795
2024-02-08 00:00:00,194.05999755859375,138.6300048828125,-0.7299937889846395,-0.782,0.0,1.4987156945983795
2024-02-09 00:00:00,195.02000427246094,139.5800018310547,-0.728149423908708,-0.562,0.0,1.4987156945983795
2024-02-12 00:00:00,194.0500030517578,140.89999389648438,-0.727435701577377,0.105,0.0,1.4987156945983795
