Date,x,y,hr,zScore,numUnits,cum rets
2022-02-16 00:00:00-05:00,100.83096313476562,146.28407287597656,-1.4701061708033607,0.437,0.0,1.0
2022-02-17 00:00:00-05:00,102.02666473388672,144.12771606445312,-1.463516833259305,-0.684,0.0,1.0
2022-02-18 00:00:00-05:00,101.43360900878906,144.6982421875,-1.458271349453213,0.121,0.0,1.0
2022-02-22 00:00:00-05:00,101.64405059814453,141.82630920410156,-1.451066410201355,-0.814,0.0,1.0
2022-02-23 00:00:00-05:00,100.81183624267578,135.96644592285156,-1.4404395036204072,-2.082,1.0,1.0
2022-02-24 00:00:00-05:00,100.19964599609375,133.16220092773438,-1.4286743419758978,-2.189,1.0,0.9973090229858074
2022-02-25 00:00:00-05:00,104.35111999511719,136.43060302734375,-1.4155923589120125,-2.407,1.0,0.9927424696885078
2022-02-28 00:00:00-05:00,105.03984069824219,129.04290771484375,-1.3967552139633213,-3.568,1.0,0.9695917513830032
2022-03-01 00:00:00-05:00,105.15462493896484,122.32241821289062,-1.373300502787865,-3.61,1.0,0.9530416001929121
2022-03-02 00:00:00-05:00,106.31204986572266,124.52711486816406,-1.3517989473503498,-2.607,1.0,0.9638568508477259
2022-03-03 00:00:00-05:00,108.79911041259766,123.82124328613281,-1.3292348121260318,-2.583,1.0,0.9578483770190913
2022-03-04 00:00:00-05:00,111.10442352294922,119.85662078857422,-1.3030600506295063,-2.836,1.0,0.9422766109516033
2022-03-07 00:00:00-05:00,110.97050476074219,110.71871185302734,-1.2718212101449595,-3.052,1.0,0.9204511527109012
2022-03-08 00:00:00-05:00,108.47386932373047,113.85171508789062,-1.2477399677831258,-1.679,1.0,0.9562477102851977
2022-03-09 00:00:00-05:00,107.306884765625,118.00004577636719,-1.2310275726770197,-0.66,1.0,0.9858272572497835
2022-03-10 00:00:00-05:00,108.36865234375,117.18778228759766,-1.2150045803930762,-0.674,1.0,0.9842884626111711
2022-03-11 00:00:00-05:00,108.79911041259766,116.25948333740234,-1.199331657150089,-0.615,1.0,0.9853174273718278
2022-03-14 00:00:00-04:00,107.95734405517578,117.92268371582031,-1.187139938233278,-0.069,1.0,1.0015271632892964
2022-03-15 00:00:00-04:00,109.15303802490234,119.29579162597656,-1.176384846422717,0.089,1.0,1.006079422981759
2022-03-16 00:00:00-04:00,109.38261413574219,123.64717864990234,-1.1699028322795482,0.713,0.0,1.0251178423224914
2022-03-17 00:00:00-04:00,109.49740600585938,124.430419921875,-1.164998799388981,0.846,0.0,1.0251178423224914
2022-03-18 00:00:00-04:00,107.8329849243164,126.60612487792969,-1.1638834275624896,1.334,0.0,1.0251178423224914
2022-03-21 00:00:00-04:00,110.23395538330078,124.65282440185547,-1.1596536145660095,0.773,0.0,1.0251178423224914
2022-03-22 00:00:00-04:00,109.20087432861328,126.15164947509766,-1.1574965424989279,1.121,0.0,1.0251178423224914
2022-03-23 00:00:00-04:00,109.34434509277344,124.48844909667969,-1.154362561175687,0.927,0.0,1.0251178423224914
2022-03-24 00:00:00-04:00,110.64525604248047,125.2330093383789,-1.1508022277087895,0.873,0.0,1.0251178423224914
2022-03-25 00:00:00-04:00,113.3714599609375,125.1846694946289,-1.1450714777812014,0.558,0.0,1.0251178423224914
2022-03-28 00:00:00-04:00,112.67317962646484,125.27169799804688,-1.1402780568574888,0.727,0.0,1.0251178423224914
2022-03-29 00:00:00-04:00,114.00279998779297,131.40232849121094,-1.1395270901889814,1.266,0.0,1.0251178423224914
2022-03-30 00:00:00-04:00,115.14110565185547,128.5497589111328,-1.1361696833252393,0.802,0.0,1.0251178423224914
2022-03-31 00:00:00-04:00,114.29932403564453,126.74150085449219,-1.1321749517576831,0.757,0.0,1.0251178423224914
2022-04-01 00:00:00-04:00,116.13592529296875,129.58441162109375,-1.1290415408650987,0.868,0.0,1.0251178423224914
2022-04-04 00:00:00-04:00,114.00279998779297,128.9655303955078,-1.127628344852013,1.067,0.0,1.0251178423224914
2022-04-05 00:00:00-04:00,115.0072021484375,128.03724670410156,-1.124991181030022,0.856,0.0,1.0251178423224914
2022-04-06 00:00:00-04:00,116.74813079833984,129.71011352539062,-1.1222404988973183,0.857,0.0,1.0251178423224914
2022-04-07 00:00:00-04:00,115.60980987548828,129.71978759765625,-1.1206807784005304,0.998,0.0,1.0251178423224914
2022-04-08 00:00:00-04:00,116.42289733886719,128.15328979492188,-1.117553540209287,0.746,0.0,1.0251178423224914
2022-04-11 00:00:00-04:00,115.27503204345703,127.39904022216797,-1.1149211526941638,0.819,0.0,1.0251178423224914
2022-04-12 00:00:00-04:00,114.97848510742188,124.45944213867188,-1.110642632938229,0.553,0.0,1.0251178423224914
2022-04-13 00:00:00-04:00,114.69152069091797,126.27735137939453,-1.1081304244731767,0.792,0.0,1.0251178423224914
2022-04-14 00:00:00-04:00,114.53848266601562,124.03397369384766,-1.104495433627509,0.574,0.0,1.0251178423224914
2022-04-18 00:00:00-04:00,114.40454864501953,122.31275177001953,-1.0998879507467032,0.416,0.0,1.0251178423224914
2022-04-19 00:00:00-04:00,115.37066650390625,125.35871887207031,-1.0970296168121891,0.638,0.0,1.0251178423224914
2022-04-20 00:00:00-04:00,117.36032104492188,127.35070037841797,-1.0944699308289558,0.606,0.0,1.0251178423224914
2022-04-21 00:00:00-04:00,115.89678955078125,128.75279235839844,-1.0943711710355177,0.934,0.0,1.0251178423224914
2022-04-22 00:00:00-04:00,113.54365539550781,128.46273803710938,-1.0962232669204799,1.193,0.0,1.0251178423224914
2022-04-25 00:00:00-04:00,112.58709716796875,125.0686264038086,-1.0964094569064493,0.939,0.0,1.0251178423224914
2022-04-26 00:00:00-04:00,111.96532440185547,121.74224090576172,-1.094454762940696,0.472,0.0,1.0251178423224914
2022-04-27 00:00:00-04:00,111.01832580566406,125.32972717285156,-1.0958341842917,1.451,0.0,1.0251178423224914
2022-04-28 00:00:00-04:00,111.73574829101562,126.5287857055664,-1.0977691904510043,1.533,-1.0,1.0251178423224914
2022-04-29 00:00:00-04:00,108.47386932373047,123.76319885253906,-1.1002145801644772,1.793,-1.0,1.0228557073721345
2022-05-02 00:00:00-04:00,106.9051284790039,126.66413116455078,-1.1059684186664085,2.855,-1.0,1.0064743083788763
2022-05-03 00:00:00-04:00,107.71820068359375,128.81082153320312,-1.1125794716506163,2.794,-1.0,1.0043214236151121
2022-05-04 00:00:00-04:00,110.3009033203125,132.80442810058594,-1.1195998225592452,2.543,-1.0,1.0029722342725091
2022-05-05 00:00:00-04:00,110.04264068603516,127.22500610351562,-1.1221421365894455,0.937,-1.0,1.025189408274204
2022-05-06 00:00:00-04:00,109.9087142944336,124.2853775024414,-1.12189173640942,0.17,-1.0,1.0363441851814976
2022-05-09 00:00:00-04:00,108.69388580322266,123.50823211669922,-1.1217878412208075,0.301,-1.0,1.0339115982642717
2022-05-10 00:00:00-04:00,108.19647979736328,121.46822357177734,-1.1205957641836364,-0.084,-1.0,1.0394862788243533
2022-05-11 00:00:00-04:00,107.72776794433594,120.74935913085938,-1.1192295670862755,-0.114,-1.0,1.0396787629884086
2022-05-12 00:00:00-04:00,107.22077941894531,119.79735565185547,-1.1176612276129227,-0.194,-1.0,1.0405818421577429
2022-05-13 00:00:00-04:00,108.05299377441406,118.86477661132812,-1.1147871849912308,-0.684,0.0,1.0470675441914528
2022-05-16 00:00:00-04:00,108.24431610107422,117.02876281738281,-1.1104453545427613,-1.151,0.0,1.0470675441914528
2022-05-17 00:00:00-04:00,108.80867767333984,120.77851104736328,-1.1086513144406802,-0.16,0.0,1.0470675441914528
2022-05-18 00:00:00-04:00,106.9912109375,116.14474487304688,-1.105308344620681,-0.83,0.0,1.0470675441914528
2022-05-19 00:00:00-04:00,106.53206634521484,119.1659164428711,-1.1047323835902259,0.198,0.0,1.0470675441914528
2022-05-20 00:00:00-04:00,107.5041275024414,116.26132202148438,-1.101495195672183,-0.882,0.0,1.0470675441914528
2022-05-23 00:00:00-04:00,109.40013122558594,119.30192565917969,-1.098939548496142,-0.5,0.0,1.0470675441914528
2022-05-24 00:00:00-04:00,111.67147827148438,117.99048614501953,-1.093788456874436,-1.401,0.0,1.0470675441914528
2022-05-25 00:00:00-04:00,111.56560516357422,119.88478088378906,-1.0903074147632188,-0.7,0.0,1.0470675441914528
2022-05-26 00:00:00-04:00,112.35480499267578,122.69223022460938,-1.0887921956757454,-0.089,0.0,1.0470675441914528
2022-05-27 00:00:00-04:00,113.22100067138672,126.31568908691406,-1.0896576133672238,0.618,0.0,1.0470675441914528
2022-05-31 00:00:00-04:00,111.94095611572266,122.8768081665039,-1.0891777530623146,0.023,0.0,1.0470675441914528
2022-06-01 00:00:00-04:00,112.05644989013672,121.78880310058594,-1.0876720544384078,-0.316,0.0,1.0470675441914528
2022-06-02 00:00:00-04:00,112.2200698852539,125.111083984375,-1.088544420329781,0.559,0.0,1.0470675441914528
2022-06-03 00:00:00-04:00,111.74847412109375,121.87622833251953,-1.087565547568449,-0.248,0.0,1.0470675441914528
2022-06-06 00:00:00-04:00,112.3740463256836,123.49851989746094,-1.0871683714142564,0.008,0.0,1.0470675441914528
2022-06-07 00:00:00-04:00,113.01889038085938,125.10137939453125,-1.0875470006569536,0.248,0.0,1.0470675441914528
2022-06-08 00:00:00-04:00,110.89189910888672,123.38195037841797,-1.0884260406050499,0.372,0.0,1.0470675441914528
2022-06-09 00:00:00-04:00,108.70716857910156,120.44821166992188,-1.0888720916691663,0.178,0.0,1.0470675441914528
2022-06-10 00:00:00-04:00,107.76398468017578,112.58930206298828,-1.084092214781527,-1.69,1.0,1.0470675441914528
2022-06-13 00:00:00-04:00,102.99031066894531,110.06358337402344,-1.0810874029781194,-0.751,1.0,1.0604315114100178
2022-06-14 00:00:00-04:00,101.57552337646484,108.32471466064453,-1.0783431841402544,-0.724,1.0,1.060750000861691
2022-06-15 00:00:00-04:00,102.1048583984375,110.37444305419922,-1.0769573479055776,-0.205,1.0,1.068104299239905
2022-06-16 00:00:00-04:00,100.65157318115234,105.40068817138672,-1.0732129083119646,-1.067,1.0,1.0538988493515933
2022-06-17 00:00:00-04:00,99.62178039550781,106.87726593017578,-1.0714520199378261,-0.195,1.0,1.066805989775697
2022-06-21 00:00:00-04:00,101.50814056396484,107.44070434570312,-1.0689257352198005,-0.526,1.0,1.0612431590308504
2022-06-22 00:00:00-04:00,101.6910171508789,109.51956176757812,-1.067962503142494,0.262,0.0,1.070326746229787
2022-06-23 00:00:00-04:00,103.01918029785156,111.09329986572266,-1.067383279587664,0.564,0.0,1.070326746229787
2022-06-24 00:00:00-04:00,105.13652801513672,117.5533447265625,-1.070171594638015,2.406,-1.0,1.070326746229787
2022-06-27 00:00:00-04:00,106.58981323242188,117.8350601196289,-1.0721462650946212,1.592,-1.0,1.0767202553366486
2022-06-28 00:00:00-04:00,106.49356842041016,115.863037109375,-1.072401477573729,0.711,-1.0,1.0849613930444582
2022-06-29 00:00:00-04:00,106.73418426513672,113.86189270019531,-1.070668719095949,-0.242,0.0,1.0940533853944376
2022-06-30 00:00:00-04:00,107.88910675048828,111.07386016845703,-1.0657136902646138,-1.719,1.0,1.0940533853944376
2022-07-01 00:00:00-04:00,110.82453155517578,114.49331665039062,-1.0610268910857097,-1.287,1.0,1.0975458986479445
2022-07-05 00:00:00-04:00,106.45506286621094,115.36760711669922,-1.0610464438187426,1.021,0.0,1.1216712474285686
2022-07-06 00:00:00-04:00,108.75528717041016,115.98933410644531,-1.0602202548108735,0.243,0.0,1.1216712474285686
2022-07-07 00:00:00-04:00,108.12008666992188,115.69789123535156,-1.0596585656689035,0.423,0.0,1.1216712474285686
2022-07-08 00:00:00-04:00,107.84098052978516,114.50303649902344,-1.0584814252070098,0.055,0.0,1.1216712474285686
2022-07-11 00:00:00-04:00,107.90836334228516,110.90872955322266,-1.054500782684414,-1.295,0.0,1.1216712474285686
2022-07-12 00:00:00-04:00,107.64849853515625,112.71559143066406,-1.0521251645392196,-0.305,0.0,1.1216712474285686
2022-07-13 00:00:00-04:00,106.90742492675781,112.40473175048828,-1.0504993531792433,-0.036,0.0,1.1216712474285686
2022-07-14 00:00:00-04:00,106.75341796875,111.5595703125,-1.0485690975366027,-0.314,0.0,1.1216712474285686
2022-07-15 00:00:00-04:00,107.69661712646484,113.4636001586914,-1.0474681432732118,0.139,0.0,1.1216712474285686
2022-07-18 00:00:00-04:00,107.69661712646484,111.62759399414062,-1.045142083102683,-0.593,0.0,1.1216712474285686
2022-07-19 00:00:00-04:00,109.20764923095703,116.3487548828125,-1.0452861411229322,0.905,0.0,1.1216712474285686
2022-07-20 00:00:00-04:00,107.5041275024414,116.66932678222656,-1.0473287420878583,1.683,-1.0,1.1216712474285686
2022-07-21 00:00:00-04:00,108.38957214355469,119.43791961669922,-1.0508423763247081,2.112,-1.0,1.1154125232668377
2022-07-22 00:00:00-04:00,109.09214782714844,124.08138275146484,-1.0572344204461415,2.95,-1.0,1.1020139749768287
2022-07-25 00:00:00-04:00,110.45879364013672,123.2459487915039,-1.06166868047707,1.776,-1.0,1.1135312759753024
2022-07-26 00:00:00-04:00,111.88321685791016,122.61450958251953,-1.063845218212024,0.907,-1.0,1.1234104910680114
2022-07-27 00:00:00-04:00,112.11418914794922,123.30423736572266,-1.0659044383263998,0.953,-1.0,1.1225326703924472
2022-07-28 00:00:00-04:00,115.42497253417969,126.6362533569336,-1.0676152116779358,0.807,-1.0,1.1241112330606589
2022-07-29 00:00:00-04:00,116.83013153076172,125.59680938720703,-1.0672073945691534,-0.028,-1.0,1.1340680007363233
2022-08-01 00:00:00-04:00,116.61839294433594,125.61624908447266,-1.06678056459475,0.019,-1.0,1.132887367286129
2022-08-02 00:00:00-04:00,115.58859252929688,123.03223419189453,-1.065276536917552,-0.467,0.0,1.1382154593744147
2022-08-03 00:00:00-04:00,114.79939270019531,124.57682037353516,-1.0655702528916076,0.349,0.0,1.1382154593744147
2022-08-04 00:00:00-04:00,111.47898864746094,124.46995544433594,-1.0686063883408548,1.385,0.0,1.1382154593744147
2022-08-05 00:00:00-04:00,109.61186218261719,123.72196197509766,-1.0726335026320715,1.568,-1.0,1.1382154593744147
2022-08-08 00:00:00-04:00,110.29519653320312,124.62537384033203,-1.0765719867078378,1.38,-1.0,1.1393000448438138
2022-08-09 00:00:00-04:00,110.94964599609375,124.15682983398438,-1.079296632352919,0.822,-1.0,1.145349154164681
2022-08-10 00:00:00-04:00,110.17007446289062,130.3553924560547,-1.0869397138027246,2.559,-1.0,1.1205677749152017
2022-08-11 00:00:00-04:00,110.94001770019531,130.16017150878906,-1.0937311138852446,1.837,-1.0,1.1276673771321373
2022-08-12 00:00:00-04:00,112.5569076538086,132.31747436523438,-1.100147138462492,1.65,-1.0,1.1289686156996146
2022-08-15 00:00:00-04:00,112.98038482666016,133.13743591308594,-1.1062370284099845,1.467,-1.0,1.1302624444911873
2022-08-16 00:00:00-04:00,113.16325378417969,133.93789672851562,-1.1122150965902025,1.356,-1.0,1.1305639583899227
2022-08-17 00:00:00-04:00,113.24024963378906,130.98989868164062,-1.115402606858759,0.42,-1.0,1.1437571569080949
2022-08-18 00:00:00-04:00,113.64446258544922,130.2968292236328,-1.117152572625567,0.004,-1.0,1.1489768936869935
2022-08-19 00:00:00-04:00,114.23495483398438,128.79356384277344,-1.1169812569853244,-0.672,0.0,1.157336617042098
2022-08-22 00:00:00-04:00,112.43445587158203,124.19588470458984,-1.114686087803013,-1.3,0.0,1.157336617042098
2022-08-23 00:00:00-04:00,112.5022201538086,124.60586547851562,-1.1125973489518994,-1.113,0.0,1.157336617042098
2022-08-24 00:00:00-04:00,112.9862289428711,124.957275390625,-1.110568232021499,-1.074,0.0,1.157336617042098
2022-08-25 00:00:00-04:00,113.81871795654297,129.00831604003906,-1.1110415555260347,-0.222,0.0,1.157336617042098
2022-08-26 00:00:00-04:00,112.27957916259766,123.03425598144531,-1.1085824936146842,-1.405,0.0,1.157336617042098
2022-08-29 00:00:00-04:00,112.63774108886719,122.9366455078125,-1.1056379385598107,-1.427,0.0,1.157336617042098
2022-08-30 00:00:00-04:00,110.76947784423828,124.73275756835938,-1.1057557264398314,-0.337,0.0,1.157336617042098
2022-08-31 00:00:00-04:00,109.75305938720703,123.95185089111328,-1.1064582128615577,-0.289,0.0,1.157336617042098
2022-09-01 00:00:00-04:00,111.1082763671875,121.57003784179688,-1.1042752545312178,-1.334,0.0,1.157336617042098
2022-09-02 00:00:00-04:00,110.88565063476562,120.80862426757812,-1.101566453938936,-1.387,0.0,1.157336617042098
2022-09-06 00:00:00-04:00,110.5565185546875,120.74030303955078,-1.0992406263871588,-1.177,0.0,1.157336617042098
2022-09-07 00:00:00-04:00,113.87679290771484,124.79132080078125,-1.0974511315073283,-0.955,0.0,1.157336617042098
2022-09-08 00:00:00-04:00,114.17687225341797,124.71324157714844,-1.095572722792082,-0.953,0.0,1.157336617042098
2022-09-09 00:00:00-04:00,114.31239318847656,125.05489349365234,-1.0939905734324014,-0.801,0.0,1.157336617042098
2022-09-12 00:00:00-04:00,115.61922454833984,128.442138671875,-1.094031128292737,-0.207,0.0,1.157336617042098
2022-09-13 00:00:00-04:00,112.73453521728516,121.5212173461914,-1.0914542977047357,-1.154,0.0,1.157336617042098
2022-09-14 00:00:00-04:00,113.28630065917969,117.29447937011719,-1.0852259563225983,-2.099,1.0,1.157336617042098
2022-09-15 00:00:00-04:00,110.46939849853516,117.56780242919922,-1.0815840199368236,-1.046,1.0,1.1730827678084894
2022-09-16 00:00:00-04:00,110.3629150390625,114.67839813232422,-1.0764574296213538,-1.529,1.0,1.1636239108576318
2022-09-19 00:00:00-04:00,111.53421020507812,116.38666534423828,-1.071917056385027,-1.226,1.0,1.1676665332684693
2022-09-20 00:00:00-04:00,109.87890625,113.87794494628906,-1.0672648254514796,-1.232,1.0,1.1667009615735866
2022-09-21 00:00:00-04:00,109.02706146240234,110.59808349609375,-1.0612020067579355,-1.534,1.0,1.1591458460802744
2022-09-22 00:00:00-04:00,109.70467376708984,109.25098419189453,-1.0539220175306097,-1.69,1.0,1.153509133817962
2022-09-23 00:00:00-04:00,107.96224975585938,109.64144897460938,-1.0487550045276148,-1.003,1.0,1.1660039454257272
2022-09-26 00:00:00-04:00,105.67774200439453,108.51886749267578,-1.045182251428924,-0.587,1.0,1.1735431408558945
2022-09-27 00:00:00-04:00,104.12892150878906,108.41149139404297,-1.0431994366134665,-0.163,1.0,1.1814582812208978
2022-09-28 00:00:00-04:00,105.57125854492188,110.59808349609375,-1.0420637597701912,0.1,1.0,1.1850929374556456
2022-09-29 00:00:00-04:00,101.31201934814453,108.94837188720703,-1.0432345743974056,0.883,0.0,1.1975326620025213
2022-09-30 00:00:00-04:00,98.5918960571289,108.05032348632812,-1.0460789869587237,1.447,0.0,1.1975326620025213
2022-10-03 00:00:00-04:00,101.65081787109375,111.46685028076172,-1.0490857580331139,1.538,-1.0,1.1975326620025213
2022-10-04 00:00:00-04:00,103.00602722167969,116.3085708618164,-1.0545280870357876,2.443,-1.0,1.1848203502328518
2022-10-05 00:00:00-04:00,100.77960968017578,117.36282348632812,-1.0624898102060178,2.863,-1.0,1.1732373366219915
2022-10-06 00:00:00-04:00,97.58517456054688,114.92243194580078,-1.0709243788779974,2.568,-1.0,1.1726422716967018
2022-10-07 00:00:00-04:00,96.2105941772461,111.64256286621094,-1.0774108895272978,1.809,-1.0,1.1839374795976947
2022-10-10 00:00:00-04:00,96.6849136352539,108.10888671875,-1.080011515368912,0.747,-1.0,1.2041518507840399
2022-10-11 00:00:00-04:00,98.93070220947266,108.11865234375,-1.0800251401384091,0.163,-1.0,1.2153957519364473
2022-10-12 00:00:00-04:00,96.08474731445312,107.07416534423828,-1.0813279175713706,0.585,-1.0,1.2063707287267966
2022-10-13 00:00:00-04:00,98.21437072753906,109.54383850097656,-1.0828324378338996,0.584,-1.0,1.2062823222141104
2022-10-14 00:00:00-04:00,94.97154235839844,107.69889831542969,-1.0855901143228537,0.865,-1.0,1.1996191106491223
2022-10-17 00:00:00-04:00,96.44290924072266,110.60783386230469,-1.0893673754359676,1.026,-1.0,1.1952265389288614
2022-10-18 00:00:00-04:00,98.49510192871094,113.95603942871094,-1.093890033067807,1.131,-1.0,1.1922172577333758
2022-10-19 00:00:00-04:00,98.77582550048828,111.90611267089844,-1.096251083929046,0.536,-1.0,1.2039808774111447
2022-10-20 00:00:00-04:00,96.90755462646484,105.82469940185547,-1.094876739682395,-0.35,0.0,1.2223841184584807
2022-10-21 00:00:00-04:00,98.48541259765625,109.90499877929688,-1.0950277488302025,0.156,0.0,1.2223841184584807
2022-10-24 00:00:00-04:00,98.10789489746094,109.28025817871094,-1.0951961884536767,0.087,0.0,1.2223841184584807
2022-10-25 00:00:00-04:00,100.01487731933594,110.26618957519531,-1.0944571663795166,-0.154,0.0,1.2223841184584807
2022-10-26 00:00:00-04:00,100.1116714477539,110.12952423095703,-1.0934612797215144,-0.194,0.0,1.2223841184584807
2022-10-27 00:00:00-04:00,101.34105682373047,109.68048858642578,-1.091057054407897,-0.542,0.0,1.2223841184584807
2022-10-28 00:00:00-04:00,103.68363952636719,111.43756866455078,-1.088024043155006,-0.626,0.0,1.2223841184584807
2022-10-31 00:00:00-04:00,103.14155578613281,111.45708465576172,-1.085662699419503,-0.441,0.0,1.2223841184584807
2022-11-01 00:00:00-04:00,102.8705062866211,111.28137969970703,-1.0836856151622636,-0.42,0.0,1.2223841184584807
2022-11-02 00:00:00-04:00,102.17354583740234,107.45486450195312,-1.0794479179547465,-1.033,0.0,1.2223841184584807
2022-11-03 00:00:00-04:00,101.38944244384766,107.09369659423828,-1.0756584715061392,-0.857,0.0,1.2223841184584807
2022-11-04 00:00:00-04:00,102.63819122314453,112.70655822753906,-1.0756793608275363,0.129,0.0,1.2223841184584807
2022-11-07 00:00:00-05:00,100.64408111572266,113.56556701660156,-1.078613048442757,0.744,0.0,1.2223841184584807
2022-11-08 00:00:00-05:00,101.29265594482422,113.6827163696289,-1.0812172576924832,0.488,0.0,1.2223841184584807
2022-11-09 00:00:00-05:00,99.85031127929688,112.05362701416016,-1.0835120094657933,0.361,0.0,1.2223841184584807
2022-11-10 00:00:00-05:00,108.22361755371094,122.48566436767578,-1.0866636397524039,0.606,0.0,1.2223841184584807
2022-11-11 00:00:00-05:00,107.14911651611328,127.66732788085938,-1.0947135094307152,2.05,-1.0,1.2223841184584807
2022-11-14 00:00:00-05:00,106.9942398071289,125.5770034790039,-1.101139755974954,1.226,-1.0,1.2331007548051989
2022-11-15 00:00:00-05:00,108.01065063476562,127.08832550048828,-1.1070997251405303,1.087,-1.0,1.2341208694200712
2022-11-16 00:00:00-05:00,108.70761108398438,126.58783721923828,-1.1114605188740398,0.573,-1.0,1.2411785064132645
2022-11-17 00:00:00-05:00,107.60408782958984,124.30121612548828,-1.1143976857065137,0.192,-1.0,1.2468134998965905
2022-11-18 00:00:00-05:00,111.3696517944336,126.0775146484375,-1.11499646341174,-0.479,0.0,1.256750284531161
2022-11-21 00:00:00-05:00,112.08597564697266,126.6467056274414,-1.1150732181065603,-0.504,0.0,1.256750284531161
2022-11-22 00:00:00-05:00,113.75094604492188,129.53195190429688,-1.1158780355469007,-0.185,0.0,1.256750284531161
2022-11-23 00:00:00-05:00,114.78673553466797,130.58204650878906,-1.116612843213381,-0.185,0.0,1.256750284531161
2022-11-25 00:00:00-05:00,116.07251739501953,130.87646484375,-1.116394091144335,-0.506,0.0,1.256750284531161
2022-11-28 00:00:00-05:00,115.01077270507812,127.87342071533203,-1.114696252626588,-1.004,0.0,1.256750284531161
2022-11-29 00:00:00-05:00,115.56599426269531,129.3749237060547,-1.1136543898933902,-0.659,0.0,1.256750284531161
2022-11-30 00:00:00-05:00,117.08556365966797,132.70181274414062,-1.1140205626421764,-0.117,0.0,1.256750284531161
2022-12-01 00:00:00-05:00,114.44579315185547,132.44664001464844,-1.1165374981757512,0.667,0.0,1.256750284531161
2022-12-02 00:00:00-05:00,113.52040100097656,134.74307250976562,-1.121579245348797,1.51,-1.0,1.256750284531161
2022-12-05 00:00:00-05:00,112.85802459716797,132.0835418701172,-1.1250289310517438,0.773,-1.0,1.2656517675268257
2022-12-06 00:00:00-05:00,114.39708709716797,129.58103942871094,-1.1248278767957502,-0.55,0.0,1.2819571330336412
2022-12-07 00:00:00-05:00,114.36785888671875,127.0294418334961,-1.122352388224692,-1.211,0.0,1.2819571330336412
2022-12-08 00:00:00-05:00,114.45552062988281,127.93231201171875,-1.120439923897046,-0.881,0.0,1.2819571330336412
2022-12-09 00:00:00-05:00,114.62112426757812,127.98137664794922,-1.1186553699392232,-0.828,0.0,1.2819571330336412
2022-12-12 00:00:00-05:00,115.91665649414062,129.85581970214844,-1.1173575963939661,-0.627,0.0,1.2819571330336412
2022-12-13 00:00:00-05:00,115.45883178710938,131.57322692871094,-1.1178805132184735,0.044,0.0,1.2819571330336412
2022-12-14 00:00:00-05:00,115.27375793457031,130.2974395751953,-1.1177664812673358,-0.3,0.0,1.2819571330336412
2022-12-15 00:00:00-05:00,113.83211517333984,126.37193298339844,-1.1158808809073077,-0.974,0.0,1.2819571330336412
2022-12-16 00:00:00-05:00,111.79625701904297,123.8203353881836,-1.1137518461167217,-1.001,0.0,1.2819571330336412
2022-12-19 00:00:00-05:00,110.5396957397461,123.29039764404297,-1.1124136993575657,-0.686,0.0,1.2819571330336412
2022-12-20 00:00:00-05:00,110.14031219482422,122.43659973144531,-1.1109656550520959,-0.771,0.0,1.2819571330336412
2022-12-21 00:00:00-05:00,111.61119079589844,124.78209686279297,-1.1101514765131175,-0.57,0.0,1.2819571330336412
2022-12-22 00:00:00-05:00,111.075439453125,123.51611328125,-1.1089749628866477,-0.799,0.0,1.2819571330336412
2022-12-23 00:00:00-05:00,112.11770629882812,124.36009979248047,-1.1076233761303131,-0.824,0.0,1.2819571330336412
2022-12-27 00:00:00-05:00,112.58528137207031,124.06568145751953,-1.1057613272940856,-0.973,0.0,1.2819571330336412
2022-12-28 00:00:00-05:00,112.08848571777344,121.95572662353516,-1.1028379129261023,-1.31,0.0,1.2819571330336412
2022-12-29 00:00:00-05:00,111.52352142333984,124.04605865478516,-1.10205862412321,-0.341,0.0,1.2819571330336412
2022-12-30 00:00:00-05:00,109.16621398925781,123.39834594726562,-1.1030341036041884,0.303,0.0,1.2819571330336412
2023-01-03 00:00:00-05:00,108.31875610351562,124.47786712646484,-1.1056328567982612,1.079,0.0,1.2819571330336412
2023-01-04 00:00:00-05:00,109.03959655761719,127.54957580566406,-1.1099100379693536,1.848,-1.0,1.2819571330336412
2023-01-05 00:00:00-05:00,106.04914093017578,120.81732940673828,-1.1114768635198244,0.513,-1.0,1.296952703596621
2023-01-06 00:00:00-05:00,109.61430358886719,126.10694885253906,-1.1136136967427819,1.041,-1.0,1.292549373606343
2023-01-09 00:00:00-05:00,110.8416519165039,126.47006225585938,-1.114884142552781,0.559,-1.0,1.2971265248621533
2023-01-10 00:00:00-05:00,111.33844757080078,127.36312103271484,-1.1162052588992952,0.627,-1.0,1.2963631391537085
2023-01-11 00:00:00-05:00,113.70548248291016,129.6300811767578,-1.117137792863204,0.396,-1.0,1.2982379178367087
2023-01-12 00:00:00-05:00,113.36454010009766,129.16883850097656,-1.117885308713196,0.324,-1.0,1.2988831172416375
2023-01-13 00:00:00-05:00,111.76704406738281,129.93431091308594,-1.1204583320291286,1.283,-1.0,1.290011548416119
2023-01-17 00:00:00-05:00,110.99750518798828,128.18746948242188,-1.1223585224713442,0.764,-1.0,1.2943456739028463
2023-01-18 00:00:00-05:00,108.7278823852539,125.40035247802734,-1.1238483317169896,0.549,-1.0,1.2959683719917177
2023-01-19 00:00:00-05:00,109.13700103759766,121.29820251464844,-1.1217465991981934,-1.308,0.0,1.3137450020531598
2023-01-20 00:00:00-05:00,110.07212829589844,128.5603790283203,-1.1240798932047458,1.199,0.0,1.3137450020531598
2023-01-23 00:00:00-05:00,110.57865142822266,127.87342071533203,-1.125776836717241,0.615,0.0,1.3137450020531598
2023-01-24 00:00:00-05:00,111.87418365478516,128.5309600830078,-1.1266583537051547,0.321,0.0,1.3137450020531598
2023-01-25 00:00:00-05:00,112.15667724609375,125.76345825195312,-1.1250574835849025,-0.988,0.0,1.3137450020531598
2023-01-26 00:00:00-05:00,112.48787689208984,125.32185363769531,-1.1227033433369895,-1.199,0.0,1.3137450020531598
2023-01-27 00:00:00-05:00,112.94569396972656,124.9783706665039,-1.1198239599800144,-1.442,0.0,1.3137450020531598
2023-01-30 00:00:00-05:00,112.53656768798828,125.27278137207031,-1.117694917483063,-0.972,0.0,1.3137450020531598
2023-01-31 00:00:00-05:00,114.49449157714844,127.91268920898438,-1.116170096715396,-0.688,0.0,1.3137450020531598
2023-02-01 00:00:00-05:00,115.88744354248047,129.5515594482422,-1.1149097053028822,-0.58,0.0,1.3137450020531598
2023-02-02 00:00:00-05:00,116.4524154663086,131.92649841308594,-1.1150868202268212,0.235,0.0,1.3137450020531598
2023-02-03 00:00:00-05:00,114.153564453125,128.29541015625,-1.1146150013240934,-0.236,0.0,1.3137450020531598
2023-02-06 00:00:00-05:00,114.59190368652344,127.0294418334961,-1.1128128216212947,-0.967,0.0,1.3137450020531598
2023-02-07 00:00:00-05:00,113.87107849121094,128.8253631591797,-1.1129422616418168,0.214,0.0,1.3137450020531598
2023-02-08 00:00:00-05:00,113.43273162841797,127.95195007324219,-1.1129868991538292,0.008,0.0,1.3137450020531598
2023-02-09 00:00:00-05:00,111.63066864013672,126.46024322509766,-1.1133991672844668,0.205,0.0,1.3137450020531598
2023-02-10 00:00:00-05:00,113.2379150390625,123.87923431396484,-1.1105814552838869,-1.654,1.0,1.3137450020531598
2023-02-13 00:00:00-05:00,113.78340148925781,126.34248352050781,-1.1090223684686327,-0.702,1.0,1.3218027918484405
2023-02-14 00:00:00-05:00,112.77034759521484,127.36312103271484,-1.1093192526509117,0.254,0.0,1.3301631070680602
2023-02-15 00:00:00-05:00,113.88082885742188,128.5996551513672,-1.1097976230876083,0.197,0.0,1.3301631070680602
2023-02-16 00:00:00-05:00,113.4102783203125,127.34735870361328,-1.1097154854381754,-0.199,0.0,1.3301631070680602
2023-02-17 00:00:00-05:00,114.80229949951172,128.0967559814453,-1.10899159390854,-0.546,0.0,1.3301631070680602
2023-02-21 00:00:00-05:00,113.76318359375,124.43854522705078,-1.1064090309350638,-1.527,1.0,1.3301631070680602
2023-02-22 00:00:00-05:00,113.36125946044922,126.87406921386719,-1.10596784082119,-0.079,1.0,1.3417795742621337
2023-02-23 00:00:00-05:00,113.86121368408203,126.38104248046875,-1.1050248507157792,-0.503,1.0,1.33805797188686
2023-02-24 00:00:00-05:00,113.4690933227539,127.8995590209961,-1.1055471857366417,0.54,0.0,1.3455282216818967
2023-02-27 00:00:00-05:00,112.63584899902344,129.7730255126953,-1.108249148029358,1.846,-1.0,1.3455282216818967
2023-02-28 00:00:00-05:00,110.58702850341797,130.21676635742188,-1.1129762755389738,2.636,-1.0,1.3368760029212503
2023-03-01 00:00:00-05:00,108.36175537109375,131.37042236328125,-1.1202459533185514,3.227,-1.0,1.3256299514539038
2023-03-02 00:00:00-05:00,109.29302978515625,132.9579315185547,-1.127633141884667,2.681,-1.0,1.3266569423762933
2023-03-03 00:00:00-05:00,110.50860595703125,135.5413818359375,-1.1353457469589645,2.458,-1.0,1.3252760702117394
2023-03-06 00:00:00-05:00,111.1654052734375,131.7747039794922,-1.1391036363516707,0.901,-1.0,1.3443552125172586
2023-03-07 00:00:00-05:00,109.00874328613281,129.0828094482422,-1.1419421996119703,0.717,-1.0,1.3465032310559883
2023-03-08 00:00:00-05:00,110.17530822753906,129.3786163330078,-1.1436767209285703,0.333,-1.0,1.3513095087646847
2023-03-09 00:00:00-05:00,108.35195922851562,125.62179565429688,-1.1438969150595315,-0.224,0.0,1.358102751095636
2023-03-10 00:00:00-05:00,107.00895690917969,124.2413330078125,-1.1440470083588317,-0.153,0.0,1.358102751095636
2023-03-13 00:00:00-04:00,108.35195922851562,122.96934509277344,-1.142064908295639,-0.933,0.0,1.358102751095636
2023-03-14 00:00:00-04:00,109.84201049804688,127.35723114013672,-1.1420236893205102,-0.077,0.0,1.358102751095636
2023-03-15 00:00:00-04:00,111.53791046142578,123.67929077148438,-1.137981931963315,-1.629,1.0,1.358102751095636
2023-03-16 00:00:00-04:00,112.08687591552734,124.7836685180664,-1.1341914564565834,-1.321,1.0,1.361693405010452
2023-03-17 00:00:00-04:00,112.42997741699219,120.78032684326172,-1.1274553610466385,-2.225,1.0,1.3470083285332277
2023-03-20 00:00:00-04:00,112.6162338256836,123.56096649169922,-1.122891660432404,-1.308,1.0,1.3593458621840067
2023-03-21 00:00:00-04:00,108.03825378417969,124.83296203613281,-1.1237684777369121,0.413,0.0,1.3850028056461166
2023-03-22 00:00:00-04:00,105.1758041381836,121.88469696044922,-1.1253941801761362,0.415,0.0,1.3850028056461166
2023-03-23 00:00:00-04:00,104.42096710205078,121.78609466552734,-1.1275511428742566,0.542,0.0,1.3850028056461166
2023-03-24 00:00:00-04:00,107.224609375,123.68915557861328,-1.1286488471548495,0.149,0.0,1.3850028056461166
2023-03-27 00:00:00-04:00,108.07746887207031,124.2413330078125,-1.1292250715327647,-0.003,0.0,1.3850028056461166
2023-03-28 00:00:00-04:00,107.8912124633789,124.45826721191406,-1.130019148720898,0.088,0.0,1.3850028056461166
2023-03-29 00:00:00-04:00,109.33224487304688,126.4500732421875,-1.1310494534687288,0.149,0.0,1.3850028056461166
2023-03-30 00:00:00-04:00,109.73417663574219,128.01788330078125,-1.132866638707501,0.39,0.0,1.3850028056461166
2023-03-31 00:00:00-04:00,110.14588928222656,131.7155303955078,-1.1370750088015251,1.093,0.0,1.3850028056461166
2023-04-03 00:00:00-04:00,108.9205322265625,138.0853729248047,-1.1471024218054893,2.554,-1.0,1.3850028056461166
2023-04-04 00:00:00-04:00,108.95974731445312,136.38938903808594,-1.1556512454652592,1.738,-1.0,1.395190968212007
2023-04-05 00:00:00-04:00,112.5770263671875,137.01058959960938,-1.1606089558442072,0.724,-1.0,1.4105728187312647
2023-04-06 00:00:00-04:00,113.14559173583984,136.14288330078125,-1.163563940162678,0.264,-1.0,1.4175256435068362
2023-04-10 00:00:00-04:00,113.78279113769531,136.4091033935547,-1.1656713615782064,0.074,-1.0,1.4201831812277246
2023-04-11 00:00:00-04:00,114.0768814086914,137.35569763183594,-1.1679504061792634,0.119,-1.0,1.4189126501798537
2023-04-12 00:00:00-04:00,113.61613464355469,136.0836944580078,-1.1694974267578881,-0.114,-1.0,1.4222947473397356
2023-04-13 00:00:00-04:00,112.08687591552734,137.3458251953125,-1.173116947946677,0.496,-1.0,1.4124564600264704
2023-04-14 00:00:00-04:00,110.8125,136.4879913330078,-1.1771433545701666,0.516,-1.0,1.4117409847975995
2023-04-17 00:00:00-04:00,111.85160827636719,138.96295166015625,-1.1818176908342417,0.677,-1.0,1.409052636006071
2023-04-18 00:00:00-04:00,111.3614501953125,139.63345336914062,-1.187108509871491,0.834,-1.0,1.4066225065735305
2023-04-19 00:00:00-04:00,112.47899627685547,138.5882568359375,-1.1902459118817574,0.217,-1.0,1.4166227913891034
2023-04-20 00:00:00-04:00,113.48869323730469,139.47569274902344,-1.192638012807273,0.115,-1.0,1.4187544195752486
2023-04-21 00:00:00-04:00,113.10638427734375,139.99830627441406,-1.195471986396535,0.341,-1.0,1.4163634451050204
2023-04-24 00:00:00-04:00,113.9298324584961,140.96461486816406,-1.1980979873738016,0.261,-1.0,1.4175069477327307
2023-04-25 00:00:00-04:00,113.97884368896484,138.4699249267578,-1.1985715586061154,-0.426,0.0,1.426985539220531
2023-04-26 00:00:00-04:00,111.60653686523438,135.7188720703125,-1.1988347853651142,-0.397,0.0,1.426985539220531
2023-04-27 00:00:00-04:00,112.67505645751953,136.99085998535156,-1.1990460435915884,-0.408,0.0,1.426985539220531
2023-04-28 00:00:00-04:00,111.89081573486328,138.3022918701172,-1.2009110701837216,0.13,0.0,1.426985539220531
2023-05-01 00:00:00-04:00,112.2927474975586,137.8092803955078,-1.20207707331812,-0.204,0.0,1.426985539220531
2023-05-02 00:00:00-04:00,110.08708190917969,137.65151977539062,-1.2049286624911666,0.377,0.0,1.426985539220531
2023-05-03 00:00:00-04:00,110.68505859375,136.4091033935547,-1.2062711444508538,-0.276,0.0,1.426985539220531
2023-05-04 00:00:00-04:00,115.63554382324219,133.60873413085938,-1.2008013779658921,-2.511,1.0,1.426985539220531
2023-05-05 00:00:00-04:00,115.24342346191406,136.10340881347656,-1.1972634554596078,-1.738,1.0,1.4392930911409072
2023-05-08 00:00:00-04:00,115.53752136230469,136.74435424804688,-1.1944629128855457,-1.612,1.0,1.4415220313381978
2023-05-09 00:00:00-04:00,116.16490173339844,135.83311462402344,-1.1907610875424748,-1.836,1.0,1.4370333747512412
2023-05-10 00:00:00-04:00,116.95894622802734,135.5557861328125,-1.186386158438548,-1.876,1.0,1.4344408785511893
2023-05-11 00:00:00-04:00,115.77278900146484,135.93215942382812,-1.183637281343978,-1.22,1.0,1.4421409786723522
2023-05-12 00:00:00-04:00,116.80209350585938,136.78396606445312,-1.181034994308977,-1.18,1.0,1.4419132508337642
2023-05-15 00:00:00-04:00,115.27283477783203,139.2898712158203,-1.1818421767042107,-0.066,1.0,1.4572257623790335
2023-05-16 00:00:00-04:00,113.7043685913086,138.0022430419922,-1.1833646292563231,0.032,1.0,1.4586674545588596
2023-05-17 00:00:00-04:00,114.47879791259766,141.0529022216797,-1.1864042163784707,0.487,0.0,1.4651190454973375
2023-05-18 00:00:00-04:00,113.82200622558594,141.2113800048828,-1.1900408818867576,0.606,0.0,1.4651190454973375
2023-05-19 00:00:00-04:00,114.99603271484375,141.04299926757812,-1.1922866855871908,0.146,0.0,1.4651190454973375
2023-05-22 00:00:00-04:00,114.80858612060547,139.33937072753906,-1.1931057823089446,-0.213,0.0,1.4651190454973375
2023-05-23 00:00:00-04:00,114.83818817138672,135.5756072998047,-1.1909153277074975,-1.244,0.0,1.4651190454973375
2023-05-24 00:00:00-04:00,114.8480453491211,132.138671875,-1.1860580274910686,-1.977,1.0,1.4651190454973375
2023-05-25 00:00:00-04:00,113.29911041259766,131.7721710205078,-1.1823995315503506,-1.315,1.0,1.4722130154570667
2023-05-26 00:00:00-04:00,112.17440795898438,132.45559692382812,-1.1806484775177137,-0.622,1.0,1.4805548270182376
2023-05-30 00:00:00-04:00,112.89461517333984,133.06971740722656,-1.1790721813802463,-0.603,1.0,1.4803360442893627
2023-05-31 00:00:00-04:00,113.73320770263672,130.0388641357422,-1.1746894958905194,-1.533,1.0,1.4669801172694188
2023-06-01 00:00:00-04:00,110.56627655029297,133.69369506835938,-1.175795545122773,0.571,0.0,1.4944840293653294
2023-06-02 00:00:00-04:00,112.98340606689453,138.2498779296875,-1.1786706159155274,0.993,0.0,1.4944840293653294
2023-06-05 00:00:00-04:00,113.06233215332031,136.60568237304688,-1.180218083656632,0.478,0.0,1.4944840293653294
2023-06-06 00:00:00-04:00,113.62467956542969,137.89329528808594,-1.181952315315712,0.671,0.0,1.4944840293653294
2023-06-07 00:00:00-04:00,115.56825256347656,140.49822998046875,-1.183786060224576,0.717,0.0,1.4944840293653294
2023-06-08 00:00:00-04:00,115.92341613769531,139.82470703125,-1.1846672169656536,0.353,0.0,1.4944840293653294
2023-06-09 00:00:00-04:00,115.75570678710938,138.33900451660156,-1.1844238814123782,-0.021,0.0,1.4944840293653294
2023-06-12 00:00:00-04:00,115.92341613769531,138.6559600830078,-1.1841671780840106,0.059,0.0,1.4944840293653294
2023-06-13 00:00:00-04:00,115.99248504638672,139.97329711914062,-1.184836557511455,0.439,0.0,1.4944840293653294
2023-06-14 00:00:00-04:00,115.49919128417969,139.35919189453125,-1.185526171745176,0.397,0.0,1.4944840293653294
2023-06-15 00:00:00-04:00,115.91355895996094,139.92376708984375,-1.1862126665914947,0.389,0.0,1.4944840293653294
2023-06-16 00:00:00-04:00,115.43013000488281,141.71652221679688,-1.1885703775123384,1.075,0.0,1.4944840293653294
2023-06-20 00:00:00-04:00,114.3547592163086,140.68641662597656,-1.1910894260617428,1.032,0.0,1.4944840293653294
2023-06-21 00:00:00-04:00,116.00234985351562,140.98355102539062,-1.1921963695634499,0.477,0.0,1.4944840293653294
2023-06-22 00:00:00-04:00,114.39421844482422,139.4285430908203,-1.193323443395126,0.555,0.0,1.4944840293653294
2023-06-23 00:00:00-04:00,112.88475036621094,137.5664520263672,-1.1943152096370355,0.452,0.0,1.4944840293653294
2023-06-26 00:00:00-04:00,114.78884887695312,139.73558044433594,-1.195133894199709,0.34,0.0,1.4944840293653294
2023-06-27 00:00:00-04:00,115.61758422851562,143.0536346435547,-1.1975669620483071,1.031,0.0,1.4944840293653294
2023-06-28 00:00:00-04:00,113.7134780883789,141.93441772460938,-1.2008176586313448,1.256,0.0,1.4944840293653294
2023-06-29 00:00:00-04:00,114.14757537841797,143.98468017578125,-1.2050057650747565,1.579,-1.0,1.4944840293653294
2023-06-30 00:00:00-04:00,114.77898406982422,146.88677978515625,-1.2105110781748432,1.979,-1.0,1.4892033913923464
2023-07-03 00:00:00-04:00,115.72611236572266,147.64942932128906,-1.2154103677342882,1.529,-1.0,1.4925014205931368
2023-07-05 00:00:00-04:00,116.99879455566406,144.78697204589844,-1.2166031293085027,-0.129,-1.0,1.5083439679430548
2023-07-06 00:00:00-04:00,115.96288299560547,143.8460235595703,-1.217530819466761,-0.043,-1.0,1.5076010150627708
2023-07-07 00:00:00-04:00,115.73596954345703,145.37135314941406,-1.2196654672673852,0.542,-1.0,1.5021755958565923
2023-07-10 00:00:00-04:00,116.00234985351562,146.49057006835938,-1.2223259707913499,0.741,-1.0,1.5004908036091593
2023-07-11 00:00:00-04:00,116.8902816772461,149.1549530029297,-1.2259643101346958,1.131,-1.0,1.4965457816096177
2023-07-12 00:00:00-04:00,118.75492095947266,150.22463989257812,-1.2285049721750232,0.55,-1.0,1.501672192312721
2023-07-13 00:00:00-04:00,118.77464294433594,150.06617736816406,-1.2305727500341075,0.35,-1.0,1.5031180113437745
2023-07-14 00:00:00-04:00,117.83739471435547,148.31304931640625,-1.231975539346234,-0.021,-1.0,1.5057248729389878
2023-07-17 00:00:00-04:00,118.08403778076172,149.75912475585938,-1.2340133886438822,0.313,-1.0,1.5026735980631596
2023-07-18 00:00:00-04:00,117.74860382080078,149.92750549316406,-1.2363623212662482,0.411,-1.0,1.5016390143131892
2023-07-19 00:00:00-04:00,119.54418182373047,148.8280792236328,-1.2361453491730208,-1.233,0.0,1.5127430284452772
2023-07-20 00:00:00-04:00,120.5406265258789,148.29324340820312,-1.234410078878927,-2.381,1.0,1.5127430284452772
2023-07-21 00:00:00-04:00,121.62586975097656,147.9267578125,-1.2314494424638696,-2.694,1.0,1.5082216383626783
2023-07-24 00:00:00-04:00,121.51734161376953,144.47991943359375,-1.2262582204564316,-3.241,1.0,1.4990821319988568
2023-07-25 00:00:00-04:00,122.18821716308594,145.6090545654297,-1.221523381796623,-2.499,1.0,1.5020835411617113
2023-07-26 00:00:00-04:00,122.74070739746094,144.78697204589844,-1.2161960565414667,-2.458,1.0,1.4992165348483288
2023-07-27 00:00:00-04:00,120.61956024169922,143.4201202392578,-1.212143862859203,-1.731,1.0,1.5050918320824556
2023-07-28 00:00:00-04:00,120.46170043945312,144.02432250976562,-1.2091364802529971,-1.282,1.0,1.509088758499436
2023-07-31 00:00:00-04:00,120.07693481445312,142.5286865234375,-1.2057625610303249,-1.405,1.0,1.5069124836927807
2023-08-01 00:00:00-04:00,119.43565368652344,144.16297912597656,-1.2043478496706022,-0.602,1.0,1.5158584807767217
2023-08-02 00:00:00-04:00,119.85002136230469,140.41900634765625,-1.2002418181811196,-1.623,1.0,1.5026635117597147
2023-08-03 00:00:00-04:00,116.75214385986328,138.94320678710938,-1.1978009066027802,-0.845,1.0,1.5117290916365151
2023-08-04 00:00:00-04:00,115.6965103149414,139.23043823242188,-1.1968292283551525,-0.349,1.0,1.5177215065445389
2023-08-07 00:00:00-04:00,116.40684509277344,141.89479064941406,-1.1973775905570845,0.175,1.0,1.523944430154962
2023-08-08 00:00:00-04:00,115.56825256347656,141.96414184570312,-1.1988023351720623,0.451,0.0,1.527184298687631
2023-08-09 00:00:00-04:00,115.90369415283203,138.74038696289062,-1.1976082912694925,-0.544,0.0,1.527184298687631
2023-08-10 00:00:00-04:00,115.39066314697266,138.75033569335938,-1.1966906560788442,-0.312,0.0,1.527184298687631
2023-08-11 00:00:00-04:00,115.88396453857422,135.95443725585938,-1.1934476577434252,-1.125,0.0,1.527184298687631
2023-08-14 00:00:00-04:00,114.69019317626953,138.92942810058594,-1.1933900813139393,0.141,0.0,1.527184298687631
2023-08-15 00:00:00-04:00,113.1609878540039,138.17323303222656,-1.1944358483464796,0.43,0.0,1.527184298687631
2023-08-16 00:00:00-04:00,114.10811614990234,136.9494171142578,-1.1938132931199676,-0.194,0.0,1.527184298687631
2023-08-17 00:00:00-04:00,115.11442565917969,137.37725830078125,-1.1925089153935007,-0.334,0.0,1.527184298687631
2023-08-18 00:00:00-04:00,116.12715911865234,138.82992553710938,-1.1914185049019848,-0.165,0.0,1.527184298687631
2023-08-21 00:00:00-04:00,115.90872192382812,137.90460205078125,-1.1899608389483554,-0.277,0.0,1.527184298687631
2023-08-22 00:00:00-04:00,116.17680358886719,137.66580200195312,-1.1881834294294178,-0.372,0.0,1.527184298687631
2023-08-23 00:00:00-04:00,115.68036651611328,137.1583709716797,-1.186580807267977,-0.251,0.0,1.527184298687631
2023-08-24 00:00:00-04:00,115.57115173339844,136.56137084960938,-1.18479153860828,-0.303,0.0,1.527184298687631
2023-08-25 00:00:00-04:00,116.86188507080078,137.67575073242188,-1.1828327704851143,-0.326,0.0,1.527184298687631
2023-08-28 00:00:00-04:00,115.97822570800781,138.13343811035156,-1.1821090416465534,0.343,0.0,1.527184298687631
2023-08-29 00:00:00-04:00,116.41509246826172,140.2527618408203,-1.182734804938759,1.007,0.0,1.527184298687631
2023-08-30 00:00:00-04:00,116.5243148803711,141.32733154296875,-1.1841327256481535,1.35,0.0,1.527184298687631
2023-08-31 00:00:00-04:00,115.12435150146484,141.04873657226562,-1.1864927793367268,1.752,-1.0,1.527184298687631
2023-09-01 00:00:00-04:00,114.64777374267578,141.2974853515625,-1.1893492242736514,1.903,-1.0,1.5254313245681685
2023-09-05 00:00:00-04:00,111.42091369628906,135.7852783203125,-1.1908117482919953,1.21,-1.0,1.5322750035321626
2023-09-06 00:00:00-04:00,111.47055053710938,136.3623809814453,-1.1923903585616078,1.289,-1.0,1.5310048479019973
2023-09-07 00:00:00-04:00,113.21802520751953,135.49673461914062,-1.191703594866255,0.133,-1.0,1.5416237896945393
2023-09-08 00:00:00-04:00,113.36695861816406,135.01914978027344,-1.1903531697233696,-0.09,-1.0,1.5434831941132305
2023-09-11 00:00:00-04:00,113.11873626708984,135.6658935546875,-1.1897312483090279,0.267,-1.0,1.53973637068
2023-09-12 00:00:00-04:00,113.069091796875,133.16847229003906,-1.1874529510928984,-0.73,0.0,1.5478907687698182
2023-09-13 00:00:00-04:00,114.43927001953125,132.3326873779297,-1.1833822780613366,-1.705,1.0,1.5478907687698182
2023-09-14 00:00:00-04:00,115.53143310546875,133.71571350097656,-1.1795293919486738,-1.467,1.0,1.5498749616760472
2023-09-15 00:00:00-04:00,114.19104766845703,133.12867736816406,-1.1767525990443444,-0.864,1.0,1.5547761080508786
2023-09-18 00:00:00-04:00,113.68467712402344,131.82525634765625,-1.1738033364652853,-1.059,1.0,1.5533727680086709
2023-09-19 00:00:00-04:00,113.27759552001953,131.54666137695312,-1.1712248149791749,-0.798,1.0,1.555232306010232
2023-09-20 00:00:00-04:00,113.34709930419922,130.14373779296875,-1.1678097353918406,-1.368,1.0,1.5510525332185408
2023-09-21 00:00:00-04:00,110.84503936767578,127.64631652832031,-1.1648935309850552,-0.992,1.0,1.5539647053316026
2023-09-22 00:00:00-04:00,110.0606689453125,129.4770965576172,-1.1642833461931321,0.349,0.0,1.564878677098922
2023-09-25 00:00:00-04:00,109.69330596923828,131.38746643066406,-1.1656985740923207,1.357,0.0,1.564878677098922
2023-09-26 00:00:00-04:00,106.21823120117188,127.9647216796875,-1.167692910005186,1.53,-1.0,1.564878677098922
2023-09-27 00:00:00-04:00,105.7019271850586,127.38762664794922,-1.1696225219822105,1.357,-1.0,1.565588480781828
2023-09-28 00:00:00-04:00,105.15584564208984,129.90493774414062,-1.1737648433698138,2.297,-1.0,1.5548499303065082
2023-09-29 00:00:00-04:00,105.17570495605469,129.1487579345703,-1.1772608445635586,1.698,-1.0,1.5593848294913428
2023-10-02 00:00:00-04:00,102.02827453613281,128.7209014892578,-1.1829049115243677,2.461,-1.0,1.5485527509439656
2023-10-03 00:00:00-04:00,103.5970230102539,128.0045166015625,-1.1864324815187781,1.328,-1.0,1.5602599280772411
2023-10-04 00:00:00-04:00,105.55299377441406,132.5515899658203,-1.1911436477438666,1.79,-1.0,1.5535650002710115
2023-10-05 00:00:00-04:00,106.6749496459961,130.67108154296875,-1.1931682050749624,0.585,-1.0,1.566873233559333
2023-10-06 00:00:00-04:00,107.77704620361328,132.46205139160156,-1.1950806056848602,0.642,-1.0,1.5658402934334792
2023-10-09 00:00:00-04:00,108.90892791748047,128.1139678955078,-1.1924728153169812,-1.161,0.0,1.586836722478936
2023-10-10 00:00:00-04:00,110.01102447509766,129.6263427734375,-1.1897094309040392,-0.977,0.0,1.586836722478936
2023-10-11 00:00:00-04:00,110.99397277832031,131.8551025390625,-1.1879702076445828,-0.563,0.0,1.586836722478936
2023-10-12 00:00:00-04:00,110.32875061035156,129.40744018554688,-1.1852379325935292,-0.995,0.0,1.586836722478936
2023-10-13 00:00:00-04:00,111.18262481689453,127.81547546386719,-1.1806462320240594,-1.602,1.0,1.586836722478936
2023-10-16 00:00:00-04:00,111.45069885253906,129.6959991455078,-1.177421049604181,-0.952,1.0,1.5942085950161484
2023-10-17 00:00:00-04:00,111.92728424072266,130.79046630859375,-1.1750345012122345,-0.667,1.0,1.5972601324029596
2023-10-18 00:00:00-04:00,111.08332824707031,127.13888549804688,-1.1709367881843602,-1.272,1.0,1.588688490482966
2023-10-19 00:00:00-04:00,109.31600952148438,123.71614074707031,-1.1659630016431946,-1.422,1.0,1.585465187410016
2023-10-20 00:00:00-04:00,108.00540924072266,124.09423828125,-1.1627386718575707,-0.697,1.0,1.5944946947761864
2023-10-23 00:00:00-04:00,107.0224609375,123.06940460205078,-1.1600628658335845,-0.537,1.0,1.5961306712045773
2023-10-24 00:00:00-04:00,107.89618682861328,122.2336196899414,-1.1562594868973015,-0.923,1.0,1.5903045484254257
2023-10-25 00:00:00-04:00,107.5784683227539,120.87049865722656,-1.1518762803093836,-1.033,1.0,1.5881630290915951
2023-10-26 00:00:00-04:00,107.98554992675781,121.39783477783203,-1.1478254525039506,-0.851,1.0,1.5901840872775375
2023-10-27 00:00:00-04:00,105.36434936523438,120.11431121826172,-1.1454531962678458,-0.249,1.0,1.5983862201790986
2023-10-30 00:00:00-04:00,105.68207550048828,121.20878601074219,-1.1440199444824726,0.001,1.0,1.602029188541779
2023-10-31 00:00:00-04:00,106.89338684082031,122.15401458740234,-1.1424732972430665,-0.11,1.0,1.6009025595194681
2023-11-01 00:00:00-04:00,107.89618682861328,122.35301971435547,-1.1403147926115917,-0.347,1.0,1.597993815783382
2023-11-02 00:00:00-04:00,110.5868911743164,124.2932357788086,-1.1374038045190156,-0.591,1.0,1.594770318117431
2023-11-03 00:00:00-04:00,110.69610595703125,127.66622161865234,-1.1371350457562803,0.383,0.0,1.607701141266005
2023-11-06 00:00:00-05:00,109.91173553466797,127.1090316772461,-1.137451907956581,0.446,0.0,1.607701141266005
2023-11-07 00:00:00-05:00,109.07772064208984,127.16873168945312,-1.138578695203608,0.675,0.0,1.607701141266005
2023-11-08 00:00:00-05:00,108.49191284179688,128.90000915527344,-1.1415342357379124,1.236,0.0,1.607701141266005
2023-11-09 00:00:00-05:00,110.4975357055664,127.37000274658203,-1.1415460356942193,0.077,0.0,1.607701141266005
2023-11-10 00:00:00-05:00,110.61668395996094,128.80999755859375,-1.1422075932178697,0.463,0.0,1.607701141266005
2023-11-13 00:00:00-05:00,110.32875061035156,129.27999877929688,-1.1434951203336297,0.675,0.0,1.607701141266005
2023-11-14 00:00:00-05:00,113.32723999023438,133.50999450683594,-1.1453509122990533,0.857,0.0,1.607701141266005
2023-11-15 00:00:00-05:00,112.7215805053711,133.6199951171875,-1.1477160758818123,1.074,0.0,1.607701141266005
2023-11-16 00:00:00-05:00,113.23788452148438,135.16000366210938,-1.150647425512514,1.281,0.0,1.607701141266005
2023-11-17 00:00:00-05:00,113.08895111083984,135.8699951171875,-1.1540505303809125,1.541,-1.0,1.607701141266005
2023-11-20 00:00:00-05:00,112.11592864990234,135.55999755859375,-1.157824514391751,1.648,-1.0,1.6062322677240823
2023-11-21 00:00:00-05:00,110.80532836914062,136.5800018310547,-1.1632297530784284,2.241,-1.0,1.5989301049902434
2023-11-22 00:00:00-05:00,112.24500274658203,136.63999938964844,-1.1671505083218534,1.511,-1.0,1.6066072362226125
2023-11-24 00:00:00-05:00,112.0,136.4499969482422,-1.1706415586173904,1.376,-1.0,1.607709953193003
2023-11-27 00:00:00-05:00,112.63999938964844,137.2899932861328,-1.1738548778538886,1.214,-1.0,1.6087160709532284
2023-11-28 00:00:00-05:00,112.5,138.0800018310547,-1.1774773198944672,1.296,-1.0,1.606694890167296
2023-11-29 00:00:00-05:00,112.05000305175781,139.5500030517578,-1.1823355713933628,1.608,-1.0,1.6013444084524604
2023-11-30 00:00:00-05:00,113.80999755859375,141.99000549316406,-1.187185630254149,1.448,-1.0,1.6020404905573584
2023-12-01 00:00:00-05:00,113.8499984741211,143.6300048828125,-1.1928029488293728,1.614,-1.0,1.5986300584062347
2023-12-04 00:00:00-05:00,114.91999816894531,143.14999389648438,-1.1967082925766932,0.935,-1.0,1.6064864984386071
2023-12-05 00:00:00-05:00,113.87999725341797,142.64999389648438,-1.2006378699401463,0.961,-1.0,1.6054231477476957
2023-12-06 00:00:00-05:00,114.7300033569336,142.6999969482422,-1.2035099977264752,0.55,-1.0,1.6100533625123925
2023-12-07 00:00:00-05:00,114.52999877929688,144.97999572753906,-1.2078864127955622,1.093,-1.0,1.6029254470849605
2023-12-08 00:00:00-05:00,113.45999908447266,143.97999572753906,-1.2122702440084103,0.975,-1.0,1.6036534534497018
2023-12-11 00:00:00-05:00,113.31999969482422,145.83999633789062,-1.2177885261778965,1.328,-1.0,1.5987056412977574
2023-12-12 00:00:00-05:00,113.69999694824219,145.3699951171875,-1.2222738564320663,0.84,-1.0,1.6037795905162318
2023-12-13 00:00:00-05:00,116.8499984741211,147.47000122070312,-1.2249650537362586,0.111,-1.0,1.6108841118514823
2023-12-14 00:00:00-05:00,115.38999938964844,149.14999389648438,-1.2297821653272052,1.11,-1.0,1.600877073799243
2023-12-15 00:00:00-05:00,114.86000061035156,149.86000061035156,-1.2354191152415805,1.321,-1.0,1.5984287289275017
