Date,x,y,hr,zScore,numUnits,cum rets
2022-05-02 00:00:00,86.61209869384766,126.66412353515625,-1.3844093186168236,2.586,-1.0,0.9861363946898476
2022-05-03 00:00:00,86.86625671386719,128.8108367919922,-1.3911190979476278,2.705,-1.0,0.9812816352429535
2022-05-04 00:00:00,88.01467895507812,132.804443359375,-1.3997096070752308,2.742,-1.0,0.9748756697304193
2022-05-05 00:00:00,87.22396850585938,127.22501373291016,-1.403981513084173,1.292,-1.0,0.9942811632775879
2022-05-06 00:00:00,88.46653747558594,124.28538513183594,-1.4031070082859987,0.048,-1.0,1.0128260887130514
2022-05-09 00:00:00,88.84306335449219,123.50823211669922,-1.4003402031081778,-0.239,0.0,1.0171002619499094
2022-05-10 00:00:00,87.21455383300781,121.46822357177734,-1.3977045651888338,-0.088,0.0,1.0171002619499094
2022-05-11 00:00:00,88.74891662597656,120.74935913085938,-1.3927550764796341,-0.739,0.0,1.0171002619499094
2022-05-12 00:00:00,88.81481170654297,119.79734802246094,-1.386907545864212,-0.859,0.0,1.0171002619499094
2022-05-13 00:00:00,89.80322265625,118.8647689819336,-1.379344214731229,-1.262,0.0,1.0171002619499094
2022-05-16 00:00:00,89.46434020996094,117.02877044677734,-1.3709071996202045,-1.37,0.0,1.0171002619499094
2022-05-17 00:00:00,90.65087127685547,120.77851104736328,-1.3648882030814218,-0.626,0.0,1.0171002619499094
2022-05-18 00:00:00,90.38508605957031,116.14474487304688,-1.3559652128095177,-1.454,0.0,1.0171002619499094
2022-05-19 00:00:00,90.00540161132812,119.1659164428711,-1.3504285725760183,-0.424,0.0,1.0171002619499094
2022-05-20 00:00:00,90.94512176513672,116.26133728027344,-1.342186377082626,-1.238,0.0,1.0171002619499094
2022-05-23 00:00:00,92.72016906738281,119.30192565917969,-1.334784138453996,-0.864,0.0,1.0171002619499094
2022-05-24 00:00:00,95.29257202148438,117.99048614501953,-1.3239905396669347,-1.666,1.0,1.0171002619499094
2022-05-25 00:00:00,95.22611999511719,119.88479614257812,-1.315352806495823,-0.975,1.0,1.0285419736110324
2022-05-26 00:00:00,94.79898071289062,122.69223022460938,-1.3107192896256143,-0.084,1.0,1.0439644097363727
2022-05-27 00:00:00,95.4729232788086,126.31568908691406,-1.3094627588263064,0.554,0.0,1.0553439876882358
2022-05-31 00:00:00,94.2199478149414,122.87680053710938,-1.3072645910508465,0.173,0.0,1.0553439876882358
2022-06-01 00:00:00,93.62194061279297,121.78880310058594,-1.3048436922257831,0.121,0.0,1.0553439876882358
2022-06-02 00:00:00,93.57447814941406,125.11109924316406,-1.3055085221023752,0.861,0.0,1.0553439876882358
2022-06-03 00:00:00,92.93850708007812,121.876220703125,-1.304504712048869,0.28,0.0,1.0553439876882358
2022-06-06 00:00:00,93.11885070800781,123.49851989746094,-1.3045294761335304,0.571,0.0,1.0553439876882358
2022-06-07 00:00:00,93.47955322265625,125.10137939453125,-1.3056796270640951,0.776,0.0,1.0553439876882358
2022-06-08 00:00:00,92.11267852783203,123.38194274902344,-1.3069601722816142,0.731,0.0,1.0553439876882358
2022-06-09 00:00:00,89.71113586425781,120.44821166992188,-1.3083376042022912,0.732,0.0,1.0553439876882358
2022-06-10 00:00:00,90.31864166259766,112.58930206298828,-1.3021497720498636,-1.117,0.0,1.0553439876882358
2022-06-13 00:00:00,86.52175903320312,110.0635757446289,-1.2973871035611069,-0.436,0.0,1.0553439876882358
2022-06-14 00:00:00,84.27207946777344,108.32471466064453,-1.294198119074472,-0.104,0.0,1.0553439876882358
2022-06-15 00:00:00,83.76898956298828,110.37444305419922,-1.2938310521080056,0.539,0.0,1.0553439876882358
2022-06-16 00:00:00,83.21843719482422,105.40068817138672,-1.2901696857144662,-0.357,0.0,1.0553439876882358
2022-06-17 00:00:00,82.46855926513672,106.87725067138672,-1.288407811359612,0.275,0.0,1.0553439876882358
2022-06-21 00:00:00,83.73102569580078,107.44070434570312,-1.2861197119783863,0.122,0.0,1.0553439876882358
2022-06-22 00:00:00,84.385986328125,109.51957702636719,-1.2850135199307398,0.546,0.0,1.0553439876882358
2022-06-23 00:00:00,86.67361450195312,111.09329986572266,-1.2829575667784145,0.349,0.0,1.0553439876882358
2022-06-24 00:00:00,88.21137237548828,117.5533447265625,-1.2849140907762724,1.716,-1.0,1.0553439876882358
2022-06-27 00:00:00,88.80937194824219,117.83505249023438,-1.2869196172937813,1.432,-1.0,1.058207867994379
2022-06-28 00:00:00,89.3409423828125,115.863037109375,-1.2864056691765005,0.614,-1.0,1.0695175764084675
2022-06-29 00:00:00,89.91047668457031,113.86188507080078,-1.2831020237214352,-0.117,-1.0,1.0801480011117266
2022-06-30 00:00:00,90.27117156982422,111.07386016845703,-1.2767395520587506,-0.911,0.0,1.0919737655193351
2022-07-01 00:00:00,92.30249786376953,114.49332427978516,-1.2711556387610936,-0.513,0.0,1.0919737655193351
2022-07-05 00:00:00,87.98355102539062,115.36762237548828,-1.2717914355954767,1.311,0.0,1.0919737655193351
2022-07-06 00:00:00,88.37272644042969,115.98932647705078,-1.2734646400421628,1.234,0.0,1.0919737655193351
2022-07-07 00:00:00,87.61335754394531,115.69789123535156,-1.2757702249514495,1.292,0.0,1.0919737655193351
2022-07-08 00:00:00,87.30010986328125,114.50304412841797,-1.277292445122032,0.969,0.0,1.0919737655193351
2022-07-11 00:00:00,88.21137237548828,110.9087142944336,-1.274348145386372,-0.429,0.0,1.0919737655193351
2022-07-12 00:00:00,88.10694885253906,112.7155990600586,-1.2726529019573396,0.169,0.0,1.0919737655193351
2022-07-13 00:00:00,87.8316650390625,112.40473937988281,-1.271321723856107,0.176,0.0,1.0919737655193351
2022-07-14 00:00:00,88.12593078613281,111.55957794189453,-1.2690678060835932,-0.285,0.0,1.0919737655193351
2022-07-15 00:00:00,88.65750122070312,113.46359252929688,-1.2679377705333075,0.174,0.0,1.0919737655193351
2022-07-18 00:00:00,86.97737121582031,111.6275863647461,-1.2673352411913923,0.288,0.0,1.0919737655193351
2022-07-19 00:00:00,87.53741455078125,116.3487548828125,-1.2704324305866288,1.759,-1.0,1.0919737655193351
2022-07-20 00:00:00,86.03764343261719,116.6693344116211,-1.275863387489675,2.21,-1.0,1.084207213099057
2022-07-21 00:00:00,86.20850372314453,119.43792724609375,-1.283533510637946,2.535,-1.0,1.075995759839898
2022-07-22 00:00:00,87.74624633789062,124.08139038085938,-1.2933555942102657,2.71,-1.0,1.068385878574571
2022-07-25 00:00:00,89.31245422363281,123.2459487915039,-1.3001890186002478,1.553,-1.0,1.0828882365181092
2022-07-26 00:00:00,90.51798248291016,122.61450958251953,-1.3040326830407745,0.789,-1.0,1.0934710068997868
2022-07-27 00:00:00,90.83122253417969,123.30423736572266,-1.307335017853919,0.765,-1.0,1.0935482740202147
2022-07-28 00:00:00,93.47955322265625,126.6362533569336,-1.3101583442644864,0.641,-1.0,1.0951305625801957
2022-07-29 00:00:00,94.22944641113281,125.59680938720703,-1.3108783791874143,0.059,-1.0,1.1035191704540581
2022-08-01 00:00:00,93.33717346191406,125.6162338256836,-1.3122549501917717,0.31,-1.0,1.099244251704501
2022-08-02 00:00:00,93.0713882446289,123.03223419189453,-1.3116564464340867,-0.382,0.0,1.1081362544685194
2022-08-03 00:00:00,93.11885070800781,124.57682037353516,-1.312101916147672,0.034,0.0,1.1081362544685194
2022-08-04 00:00:00,92.48287963867188,124.46995544433594,-1.3133051914663116,0.216,0.0,1.1081362544685194
2022-08-05 00:00:00,92.25505828857422,123.72195434570312,-1.3141335876405154,0.012,0.0,1.1081362544685194
2022-08-08 00:00:00,93.49854278564453,124.62538146972656,-1.3142007638604858,-0.236,0.0,1.1081362544685194
2022-08-09 00:00:00,93.88772583007812,124.15682983398438,-1.313295927810373,-0.539,0.0,1.1081362544685194
2022-08-10 00:00:00,93.96366119384766,130.3553924560547,-1.3176072201018114,1.232,0.0,1.1081362544685194
2022-08-11 00:00:00,93.47955322265625,130.16015625,-1.322726053491809,1.149,0.0,1.1081362544685194
2022-08-12 00:00:00,94.07756805419922,132.3174591064453,-1.328722952158654,1.338,0.0,1.1081362544685194
2022-08-15 00:00:00,95.19764709472656,133.13743591308594,-1.3337724293443385,0.948,0.0,1.1081362544685194
2022-08-16 00:00:00,95.6951675415039,133.93788146972656,-1.33837093041893,0.809,0.0,1.1081362544685194
2022-08-17 00:00:00,96.23095703125,130.9899139404297,-1.3393684435894537,-0.369,0.0,1.1081362544685194
2022-08-18 00:00:00,96.5658187866211,130.29684448242188,-1.3387759605425689,-0.819,0.0,1.1081362544685194
2022-08-19 00:00:00,96.20225524902344,128.79356384277344,-1.33713413181281,-1.2,0.0,1.1081362544685194
2022-08-22 00:00:00,95.11154174804688,124.19588470458984,-1.3328010660811642,-1.974,1.0,1.1081362544685194
2022-08-23 00:00:00,94.4896469116211,124.6058578491211,-1.3294870072911433,-1.371,1.0,1.114338500705719
2022-08-24 00:00:00,94.60445404052734,124.95726776123047,-1.3267585960676518,-1.157,1.0,1.1161626189549305
2022-08-25 00:00:00,95.15937042236328,129.00831604003906,-1.327156492046728,-0.115,1.0,1.1289982970516932
2022-08-26 00:00:00,94.26959228515625,123.03426361083984,-1.3238985826909773,-1.529,1.0,1.110897512389503
2022-08-29 00:00:00,94.9201889038086,122.93663787841797,-1.3195611745500713,-1.62,1.0,1.1086925771341034
2022-08-30 00:00:00,94.04954528808594,124.7327651977539,-1.317920807313964,-0.674,1.0,1.1211553324764472
2022-08-31 00:00:00,93.51375579833984,123.95184326171875,-1.3167364498021534,-0.679,1.0,1.121300869142117
2022-09-01 00:00:00,95.14025115966797,121.57003021240234,-1.3118703108953444,-1.803,1.0,1.104820290099752
2022-09-02 00:00:00,94.22174835205078,120.80863952636719,-1.307244357808152,-1.465,1.0,1.1084248196076874
2022-09-06 00:00:00,93.52332305908203,120.74028778076172,-1.3037390528358253,-1.066,1.0,1.1132564309120005
2022-09-07 00:00:00,96.85285186767578,124.79132843017578,-1.30043341480968,-0.999,1.0,1.113377529023087
2022-09-08 00:00:00,96.3074951171875,124.71324920654297,-1.2979684137501295,-0.709,1.0,1.116855537436695
2022-09-09 00:00:00,96.4892807006836,125.05490112304688,-1.2959178961726903,-0.585,1.0,1.1180692778327954
2022-09-12 00:00:00,97.51300811767578,128.44212341308594,-1.2958371365534924,0.155,1.0,1.1261870390289994
2022-09-13 00:00:00,94.54705047607422,121.5212173461914,-1.2934460296310872,-0.787,1.0,1.114491849987414
2022-09-14 00:00:00,95.64733123779297,117.29448699951172,-1.286150918441481,-2.256,1.0,1.09388472764196
2022-09-15 00:00:00,93.41808319091797,117.56780242919922,-1.2813922235305275,-1.021,1.0,1.1089939600127958
2022-09-16 00:00:00,93.19802856445312,114.67839050292969,-1.275159158727671,-1.563,1.0,1.1003158162804063
2022-09-19 00:00:00,94.21218872070312,116.38666534423828,-1.2695543505775848,-1.191,1.0,1.1043121036257313
2022-09-20 00:00:00,93.15975952148438,113.8779525756836,-1.2634878543324806,-1.3,1.0,1.1016891119519923
2022-09-21 00:00:00,92.07861328125,110.59807586669922,-1.2561993975242984,-1.555,1.0,1.0961967086762914
2022-09-22 00:00:00,92.25082397460938,109.2509765625,-1.2479639747687286,-1.655,1.0,1.0926147600843097
2022-09-23 00:00:00,91.34191131591797,109.64144897460938,-1.2415187217357642,-0.999,1.0,1.1020903929290573
2022-09-26 00:00:00,89.14134979248047,108.51886749267578,-1.2371872944704134,-0.413,1.0,1.1112107539625107
2022-09-27 00:00:00,86.84513092041016,108.41149139404297,-1.2358188920099817,0.383,0.0,1.1244320579937548
2022-09-28 00:00:00,86.89297485351562,110.59807586669922,-1.2368160780581223,1.027,0.0,1.1244320579937548
2022-09-29 00:00:00,83.8696060180664,108.94837951660156,-1.2399092234853664,1.616,-1.0,1.1244320579937548
2022-09-30 00:00:00,82.05177307128906,108.05032348632812,-1.2443000692772128,1.979,-1.0,1.1196943578858196
2022-10-03 00:00:00,83.8696060180664,111.46685028076172,-1.2496134260410339,2.172,-1.0,1.116416218120675
2022-10-04 00:00:00,85.25690460205078,116.3085708618164,-1.2574366429063062,2.7,-1.0,1.1054945157898954
2022-10-05 00:00:00,82.56842041015625,117.36280822753906,-1.2690284280167277,3.057,-1.0,1.0898392967145814
2022-10-06 00:00:00,80.36786651611328,114.92243194580078,-1.2807563564487605,2.537,-1.0,1.0925491812313368
2022-10-07 00:00:00,78.05250549316406,111.6425552368164,-1.2914779166728498,2.067,-1.0,1.0979684874902353
2022-10-10 00:00:00,77.96639251708984,108.10888671875,-1.2982771580897765,1.194,-1.0,1.1168504028781283
2022-10-11 00:00:00,78.07164001464844,108.11865234375,-1.3038868719235088,1.024,-1.0,1.1195411763502752
2022-10-12 00:00:00,76.03375244140625,107.07416534423828,-1.3104202351925254,1.172,-1.0,1.1141426473481328
2022-10-13 00:00:00,78.59786224365234,109.54383087158203,-1.3158722743297244,0.891,-1.0,1.1203356476131319
2022-10-14 00:00:00,78.36824035644531,107.69890594482422,-1.3193455082558838,0.514,-1.0,1.1289335505966107
2022-10-17 00:00:00,79.43023681640625,110.60783386230469,-1.3236397809193612,0.692,-1.0,1.1235258083680308
2022-10-18 00:00:00,81.32462310791016,113.95603942871094,-1.328547762376911,0.742,-1.0,1.1215367029901424
2022-10-19 00:00:00,80.88451385498047,111.90611267089844,-1.3318354778815187,0.396,-1.0,1.129418768999165
2022-10-20 00:00:00,79.81294250488281,105.82469940185547,-1.3302641524057703,-0.477,0.0,1.1507815454045263
2022-10-21 00:00:00,81.20024871826172,109.90499877929688,-1.330049283592528,-0.073,0.0,1.1507815454045263
2022-10-24 00:00:00,81.02803802490234,109.28026580810547,-1.3297172441524214,-0.16,0.0,1.1507815454045263
2022-10-25 00:00:00,82.13787078857422,110.26618957519531,-1.3289321626310393,-0.257,0.0,1.1507815454045263
2022-10-26 00:00:00,82.03263092041016,110.1295166015625,-1.3281312217848606,-0.253,0.0,1.1507815454045263
2022-10-27 00:00:00,82.6832275390625,109.68048858642578,-1.3261626294428284,-0.478,0.0,1.1507815454045263
2022-10-28 00:00:00,84.62545013427734,111.43756866455078,-1.3233827562502998,-0.575,0.0,1.1507815454045263
2022-10-31 00:00:00,84.15663146972656,111.45709228515625,-1.3212820457785428,-0.423,0.0,1.1507815454045263
2022-11-01 00:00:00,84.21403503417969,111.28137969970703,-1.3192324321716011,-0.49,0.0,1.1507815454045263
2022-11-02 00:00:00,84.39582824707031,107.4548568725586,-1.3135781696229416,-1.2,0.0,1.1507815454045263
2022-11-03 00:00:00,84.89334106445312,107.09369659423828,-1.3068145424799444,-1.294,0.0,1.1507815454045263
2022-11-04 00:00:00,86.14669799804688,112.70655822753906,-1.3040871982569646,-0.475,0.0,1.1507815454045263
2022-11-07 00:00:00,83.86004638671875,113.56556701660156,-1.3058230410404639,0.243,0.0,1.1507815454045263
2022-11-08 00:00:00,84.47236633300781,113.6827163696289,-1.3075540144120625,0.017,0.0,1.1507815454045263
2022-11-09 00:00:00,83.87918090820312,112.05362701416016,-1.3083598407390413,-0.256,0.0,1.1507815454045263
2022-11-10 00:00:00,87.01734924316406,122.48566436767578,-1.3147737851600854,1.053,0.0,1.1507815454045263
2022-11-11 00:00:00,85.2664794921875,127.6673355102539,-1.328502317790284,2.321,-1.0,1.1507815454045263
2022-11-14 00:00:00,85.46739959716797,125.57699584960938,-1.3402075702599587,1.45,-1.0,1.1647648257160232
2022-11-15 00:00:00,86.5871353149414,127.08832550048828,-1.3506400616872105,1.181,-1.0,1.1684227564896053
2022-11-16 00:00:00,88.17021942138672,126.58782958984375,-1.3575842004016518,0.459,-1.0,1.1816225918487184
2022-11-17 00:00:00,87.65862274169922,124.30121612548828,-1.3619122804024097,0.038,-1.0,1.1897128513984652
2022-11-18 00:00:00,90.28422546386719,126.0775146484375,-1.363806213092459,-0.367,0.0,1.197620048069356
2022-11-21 00:00:00,90.8827133178711,126.64671325683594,-1.3649105431717767,-0.406,0.0,1.197620048069356
2022-11-22 00:00:00,91.91558074951172,129.53196716308594,-1.3671201647614692,-0.073,0.0,1.197620048069356
2022-11-23 00:00:00,93.31525421142578,130.58204650878906,-1.3685390904484278,-0.255,0.0,1.197620048069356
2022-11-25 00:00:00,94.11646270751953,130.87644958496094,-1.3689885045284105,-0.416,0.0,1.197620048069356
2022-11-28 00:00:00,93.18978118896484,127.87342834472656,-1.3677024337978767,-0.781,0.0,1.197620048069356
2022-11-29 00:00:00,92.9581069946289,129.37493896484375,-1.367865000323035,-0.291,0.0,1.197620048069356
2022-11-30 00:00:00,94.6377182006836,132.70181274414062,-1.369147696259858,-0.024,0.0,1.197620048069356
2022-12-01 00:00:00,94.45430755615234,132.4466552734375,-1.3704881190512823,-0.035,0.0,1.197620048069356
2022-12-02 00:00:00,93.97166442871094,134.74307250976562,-1.3743119704523332,0.64,0.0,1.197620048069356
2022-12-05 00:00:00,93.99097442626953,132.08352661132812,-1.3758438022388033,-0.085,0.0,1.197620048069356
2022-12-06 00:00:00,94.17436981201172,129.58102416992188,-1.374497494687565,-0.737,0.0,1.197620048069356
2022-12-07 00:00:00,93.238037109375,127.02943420410156,-1.3717289909704544,-0.952,0.0,1.197620048069356
2022-12-08 00:00:00,94.20333099365234,127.93230438232422,-1.3686112708238314,-0.976,0.0,1.197620048069356
2022-12-09 00:00:00,93.18011474609375,127.98138427734375,-1.3669565386239444,-0.546,0.0,1.197620048069356
2022-12-12 00:00:00,94.93695831298828,129.85581970214844,-1.3652025458090202,-0.627,0.0,1.197620048069356
2022-12-13 00:00:00,95.0914077758789,131.57321166992188,-1.3648811434066075,-0.235,0.0,1.197620048069356
2022-12-14 00:00:00,95.02384948730469,130.29742431640625,-1.363781049315356,-0.51,0.0,1.197620048069356
2022-12-15 00:00:00,93.61451721191406,126.3719253540039,-1.360934814060025,-0.944,0.0,1.197620048069356
2022-12-16 00:00:00,91.8673095703125,123.8203353881836,-1.3579093837231708,-0.912,0.0,1.197620048069356
2022-12-19 00:00:00,91.55842590332031,123.29039001464844,-1.3549989709577834,-0.86,0.0,1.197620048069356
2022-12-20 00:00:00,91.30744934082031,122.43659973144531,-1.3518899156660518,-0.903,0.0,1.197620048069356
2022-12-21 00:00:00,92.39823150634766,124.78208923339844,-1.3497455177549453,-0.679,0.0,1.197620048069356
2022-12-22 00:00:00,91.857666015625,123.51611328125,-1.3474522814672172,-0.82,0.0,1.197620048069356
2022-12-23 00:00:00,92.52371215820312,124.36009979248047,-1.3452725034328614,-0.774,0.0,1.197620048069356
2022-12-27 00:00:00,93.19943237304688,124.06568145751953,-1.342248543759647,-0.969,0.0,1.197620048069356
2022-12-28 00:00:00,92.63955688476562,121.95571899414062,-1.3381738553955091,-1.164,0.0,1.197620048069356
2022-12-29 00:00:00,93.14151000976562,124.04606628417969,-1.3354910186554076,-0.704,0.0,1.197620048069356
2022-12-30 00:00:00,92.00244903564453,123.39834594726562,-1.3339804481157567,-0.4,0.0,1.197620048069356
2023-01-03 00:00:00,92.43684387207031,124.47785949707031,-1.3331929974135401,-0.176,0.0,1.197620048069356
2023-01-04 00:00:00,93.238037109375,127.54957580566406,-1.334298924108678,0.61,0.0,1.197620048069356
2023-01-05 00:00:00,91.983154296875,120.81732940673828,-1.3312446640714213,-1.299,0.0,1.197620048069356
2023-01-06 00:00:00,94.43500518798828,126.10694885253906,-1.3295617660051222,-0.24,0.0,1.197620048069356
2023-01-09 00:00:00,94.32881927490234,126.47006225585938,-1.3286531072259333,0.129,0.0,1.197620048069356
2023-01-10 00:00:00,94.68598175048828,127.36311340332031,-1.328291853114075,0.408,0.0,1.197620048069356
2023-01-11 00:00:00,95.18793487548828,129.6300811767578,-1.3294101049012403,1.226,0.0,1.197620048069356
2023-01-12 00:00:00,94.14541625976562,129.16885375976562,-1.3314433269446815,1.637,-1.0,1.197620048069356
2023-01-13 00:00:00,93.14151000976562,129.93431091308594,-1.3352438975986174,2.375,-1.0,1.1907458677566085
2023-01-17 00:00:00,92.17620849609375,128.1874542236328,-1.3386110200586436,1.841,-1.0,1.1937998701752464
2023-01-18 00:00:00,90.10082244873047,125.40034484863281,-1.341648460308908,1.58,-1.0,1.1949475315540135
2023-01-19 00:00:00,89.27067565917969,121.29820251464844,-1.341842066323741,0.176,-1.0,1.207414736660758
2023-01-20 00:00:00,90.53520965576172,128.56039428710938,-1.3463935049694873,2.36,-1.0,1.1868390150919326
2023-01-23 00:00:00,90.30354309082031,127.87342834472656,-1.3509202146122936,1.886,-1.0,1.189976010642964
2023-01-24 00:00:00,90.78618621826172,128.5309600830078,-1.355100858214882,1.736,-1.0,1.1914628612898346
2023-01-25 00:00:00,91.17230224609375,125.76346588134766,-1.3560623907432847,0.343,-1.0,1.2050089791956085
2023-01-26 00:00:00,91.5873794555664,125.32185363769531,-1.3556002729326377,-0.071,-1.0,1.2088656708391023
2023-01-27 00:00:00,91.61634063720703,124.9783706665039,-1.3546312943476146,-0.218,0.0,1.2100458655525492
2023-01-30 00:00:00,91.75148010253906,125.27277374267578,-1.353759509027882,-0.165,0.0,1.2100458655525492
2023-01-31 00:00:00,92.00244903564453,127.91268157958984,-1.354959689023511,0.738,0.0,1.2100458655525492
2023-02-01 00:00:00,92.1375961303711,129.55157470703125,-1.357631652342241,1.181,0.0,1.2100458655525492
2023-02-02 00:00:00,91.857666015625,131.926513671875,-1.3626914533608858,1.954,-1.0,1.2100458655525492
2023-02-03 00:00:00,89.70506286621094,128.29541015625,-1.3671094115118265,1.422,-1.0,1.2144059416494764
2023-02-06 00:00:00,90.30354309082031,127.02943420410156,-1.3692883455151519,0.508,-1.0,1.223504872754412
2023-02-07 00:00:00,90.01394653320312,128.82537841796875,-1.3728649693899906,1.165,-1.0,1.2160939306253382
2023-02-08 00:00:00,88.58531188964844,127.95194244384766,-1.3773255749509934,1.348,-1.0,1.213322548389959
2023-02-09 00:00:00,87.06014251708984,126.46024322509766,-1.382120987042222,1.341,-1.0,1.2125467149342306
2023-02-10 00:00:00,89.15483093261719,123.87923431396484,-1.381831487863714,-0.775,0.0,1.2346059491631156
2023-02-13 00:00:00,89.5795669555664,126.34248352050781,-1.3824283907425,-0.101,0.0,1.2346059491631156
2023-02-14 00:00:00,88.71288299560547,127.36311340332031,-1.3850556182083908,0.642,0.0,1.2346059491631156
2023-02-15 00:00:00,88.81025695800781,128.59963989257812,-1.3887577656048855,0.903,0.0,1.2346059491631156
2023-02-16 00:00:00,89.25821685791016,127.34735870361328,-1.3906970626967798,-0.007,0.0,1.2346059491631156
2023-02-17 00:00:00,90.8065414428711,128.0967559814453,-1.390983681776109,-0.695,0.0,1.2346059491631156
2023-02-21 00:00:00,90.30017852783203,124.43853759765625,-1.388406204366577,-1.863,1.0,1.2346059491631156
2023-02-22 00:00:00,89.98856353759766,126.87406158447266,-1.3881059416008799,-0.587,1.0,1.2461044939395254
2023-02-23 00:00:00,89.18030548095703,126.38104248046875,-1.3887299535414894,-0.322,1.0,1.24839551734929
2023-02-24 00:00:00,88.86869049072266,127.89955139160156,-1.3911598817474342,0.409,0.0,1.2552945460811105
2023-02-27 00:00:00,88.46942901611328,129.7730255126953,-1.395814673528889,1.309,0.0,1.2552945460811105
2023-02-28 00:00:00,87.00873565673828,130.2167510986328,-1.40264570515551,2.031,-1.0,1.2552945460811105
2023-03-01 00:00:00,85.8401870727539,131.37042236328125,-1.411775300137098,2.577,-1.0,1.2473397439101837
2023-03-02 00:00:00,87.26192474365234,132.9579315185547,-1.4202178030278223,1.904,-1.0,1.2518412002057646
2023-03-03 00:00:00,88.31362915039062,135.5413818359375,-1.4288716750720702,1.86,-1.0,1.2505973769181973
2023-03-06 00:00:00,89.22899627685547,131.7747039794922,-1.432393627640877,-0.143,-1.0,1.2713569152045447
2023-03-07 00:00:00,88.28441619873047,129.0828094482422,-1.433651271742654,-0.659,0.0,1.2770283557985982
2023-03-08 00:00:00,89.28742980957031,129.37863159179688,-1.4334462786175,-1.027,0.0,1.2770283557985982
2023-03-09 00:00:00,88.89790344238281,125.6218032836914,-1.430199254458135,-1.965,1.0,1.2770283557985982
2023-03-10 00:00:00,88.24546813964844,124.24134063720703,-1.4263343759561702,-1.836,1.0,1.2766033722956462
2023-03-13 00:00:00,90.35860443115234,122.96934509277344,-1.4188880222130362,-2.623,1.0,1.2622183899338515
2023-03-14 00:00:00,91.546630859375,127.35723876953125,-1.4138769590725648,-1.556,1.0,1.274527776299276
2023-03-15 00:00:00,93.13391876220703,123.67929077148438,-1.4044516294527676,-2.611,1.0,1.2547056580266776
2023-03-16 00:00:00,93.7766342163086,124.78366088867188,-1.39532515287295,-2.125,1.0,1.258842680388856
2023-03-17 00:00:00,93.12418365478516,120.78032684326172,-1.3843129314164657,-2.336,1.0,1.2505627268869526
2023-03-20 00:00:00,94.37064361572266,123.56096649169922,-1.374864435591026,-1.773,1.0,1.2582482761496698
2023-03-21 00:00:00,90.74811553955078,124.83296203613281,-1.3718949007327872,-0.398,1.0,1.2844062373546759
2023-03-22 00:00:00,89.68667602539062,121.88469696044922,-1.3688401963358232,-0.616,1.0,1.2794272541370177
2023-03-23 00:00:00,89.32637786865234,121.78609466552734,-1.366353353613122,-0.451,1.0,1.2819565163757136
2023-03-24 00:00:00,92.578857421875,123.68916320800781,-1.3619323144043403,-0.847,1.0,1.2734221535401642
2023-03-27 00:00:00,92.09195709228516,124.24134063720703,-1.3586395123115664,-0.502,1.0,1.2795118894133415
2023-03-28 00:00:00,91.91667175292969,124.45826721191406,-1.356181622585664,-0.329,1.0,1.2822455667362238
2023-03-29 00:00:00,92.61780548095703,126.4500732421875,-1.3549554906321284,-0.056,1.0,1.2868279629522499
2023-03-30 00:00:00,92.238037109375,128.01788330078125,-1.3558255114410906,0.397,0.0,1.294739127189258
2023-03-31 00:00:00,93.16313171386719,131.71554565429688,-1.3590612129110062,0.824,0.0,1.294739127189258
2023-04-03 00:00:00,92.59832763671875,138.08535766601562,-1.3685762883405501,1.978,-1.0,1.294739127189258
2023-04-04 00:00:00,93.50396728515625,136.38938903808594,-1.3757144238437404,1.213,-1.0,1.3083335472677595
2023-04-05 00:00:00,95.92871856689453,137.01058959960938,-1.3795546190909684,0.609,-1.0,1.319779456026798
2023-04-06 00:00:00,96.37665557861328,136.1428680419922,-1.3812944083445002,0.283,-1.0,1.3259196355637477
2023-04-10 00:00:00,96.6103744506836,136.4091033935547,-1.3825253690070909,0.242,-1.0,1.3265697792141047
2023-04-11 00:00:00,96.51300048828125,137.35569763183594,-1.384501067213321,0.391,-1.0,1.3232834036192096
2023-04-12 00:00:00,96.10400390625,136.0836944580078,-1.3858152576571365,0.221,-1.0,1.3263734545607904
2023-04-13 00:00:00,95.5099868774414,137.3458251953125,-1.3887007266985847,0.564,-1.0,1.3196702418145054
2023-04-14 00:00:00,94.14666748046875,136.4879913330078,-1.3924599127552812,0.689,-1.0,1.3171233954720343
2023-04-17 00:00:00,95.30548858642578,138.9629364013672,-1.3967735547879727,0.782,-1.0,1.3154686828730504
2023-04-18 00:00:00,94.96464538574219,139.63345336914062,-1.401788460809283,0.933,-1.0,1.3130109390355156
2023-04-19 00:00:00,95.56840515136719,138.5882568359375,-1.4048871343591223,0.554,-1.0,1.32102877534949
2023-04-20 00:00:00,96.07479095458984,139.47569274902344,-1.4076029090342492,0.585,-1.0,1.3213378147329
2023-04-21 00:00:00,96.44483184814453,139.998291015625,-1.410039363124352,0.592,-1.0,1.3221829771229168
2023-04-24 00:00:00,97.22386169433594,140.96461486816406,-1.4121202077667545,0.52,-1.0,1.3233849140911147
2023-04-25 00:00:00,97.76919555664062,138.46990966796875,-1.411220566400032,-0.176,-1.0,1.334876670638816
2023-04-26 00:00:00,96.5422134399414,135.7188720703125,-1.4091136559826527,-0.346,0.0,1.337879673071348
2023-04-27 00:00:00,96.58116149902344,136.99085998535156,-1.4080336302696579,-0.069,0.0,1.337879673071348
2023-04-28 00:00:00,95.8897705078125,138.3022918701172,-1.4091097014497804,0.39,0.0,1.337879673071348
2023-05-01 00:00:00,96.51300048828125,137.8092803955078,-1.4092501350931577,0.033,0.0,1.337879673071348
2023-05-02 00:00:00,95.98715209960938,137.65151977539062,-1.4097371079083452,0.13,0.0,1.337879673071348
2023-05-03 00:00:00,95.47103118896484,136.4091033935547,-1.4098010698674992,-0.06,0.0,1.337879673071348
2023-05-04 00:00:00,95.9384536743164,133.60873413085938,-1.406894015807889,-0.957,0.0,1.337879673071348
2023-05-05 00:00:00,96.8830337524414,136.10342407226562,-1.4047835783394886,-0.742,0.0,1.337879673071348
2023-05-08 00:00:00,96.41561889648438,136.74435424804688,-1.4040468891218523,-0.441,0.0,1.337879673071348
2023-05-09 00:00:00,96.18190002441406,135.83311462402344,-1.4030741879655086,-0.618,0.0,1.337879673071348
2023-05-10 00:00:00,96.80513763427734,135.5557861328125,-1.4011822010114061,-0.971,0.0,1.337879673071348
2023-05-11 00:00:00,96.3669204711914,135.93215942382812,-1.4001452605476474,-0.609,0.0,1.337879673071348
2023-05-12 00:00:00,96.91224670410156,136.78396606445312,-1.3993864302107275,-0.618,0.0,1.337879673071348
2023-05-15 00:00:00,95.89950561523438,139.2898712158203,-1.4020126524519947,0.699,0.0,1.337879673071348
2023-05-16 00:00:00,94.75071716308594,138.0022430419922,-1.405175127567224,0.662,0.0,1.337879673071348
2023-05-17 00:00:00,94.16159057617188,141.0529022216797,-1.4114196628812339,1.778,-1.0,1.337879673071348
2023-05-18 00:00:00,93.63137817382812,141.2113800048828,-1.4183763864285908,1.728,-1.0,1.3369473827725074
2023-05-19 00:00:00,93.4644546508789,141.04299926757812,-1.4249550840388114,1.462,-1.0,1.3389402479193726
2023-05-22 00:00:00,92.93424987792969,139.33937072753906,-1.4301754621002194,1.132,-1.0,1.34420472454904
2023-05-23 00:00:00,92.1781997680664,135.5756072998047,-1.4325393899515277,0.078,-1.0,1.355042228681659
2023-05-24 00:00:00,91.80509185791016,132.138671875,-1.4318601011456764,-0.994,0.0,1.3658168169361682
2023-05-25 00:00:00,91.5301742553711,131.7721710205078,-1.4308187602296993,-0.909,0.0,1.3658168169361682
2023-05-26 00:00:00,91.00978088378906,132.45559692382812,-1.4310179530277078,-0.353,0.0,1.3658168169361682
2023-05-30 00:00:00,90.88213348388672,133.06971740722656,-1.4320608077247121,-0.072,0.0,1.3658168169361682
2023-05-31 00:00:00,91.60872650146484,130.0388641357422,-1.4296716049730624,-1.471,0.0,1.3658168169361682
2023-06-01 00:00:00,90.15554809570312,133.69369506835938,-1.4318680212193715,0.605,0.0,1.3658168169361682
2023-06-02 00:00:00,90.09664154052734,138.2498779296875,-1.4385516858357603,1.978,-1.0,1.3658168169361682
2023-06-05 00:00:00,91.26506042480469,136.60568237304688,-1.4425333681237829,0.679,-1.0,1.3795662933667716
2023-06-06 00:00:00,90.73485565185547,137.89329528808594,-1.4475749407461078,1.251,-1.0,1.3736421671404897
2023-06-07 00:00:00,91.84436798095703,140.49822998046875,-1.453243080586705,1.357,-1.0,1.3718965563437853
2023-06-08 00:00:00,92.29602813720703,139.82470703125,-1.457412353982485,0.743,-1.0,1.3781468819605491
2023-06-09 00:00:00,91.79527282714844,138.33900451660156,-1.4603792797947508,0.383,-1.0,1.3819217148680651
2023-06-12 00:00:00,90.95085906982422,138.6559600830078,-1.4642724125532443,0.772,-1.0,1.3775218183909548
2023-06-13 00:00:00,90.36174011230469,139.97329711914062,-1.4698848322147025,1.265,-1.0,1.3713896611922116
2023-06-14 00:00:00,90.71521759033203,139.35919189453125,-1.4743427199835921,0.696,-1.0,1.3770214783040249
2023-06-15 00:00:00,91.33379364013672,139.92376708984375,-1.4779813152726007,0.425,-1.0,1.3794940554613737
2023-06-16 00:00:00,91.28469848632812,141.71652221679688,-1.482824855462618,0.879,-1.0,1.374357641387224
2023-06-20 00:00:00,90.35191345214844,140.68641662597656,-1.4877766665818266,0.799,-1.0,1.3747006111315738
2023-06-21 00:00:00,91.23560333251953,140.98355102539062,-1.4914790155614104,0.307,-1.0,1.3795926456507048
2023-06-22 00:00:00,90.45011138916016,139.4285430908203,-1.4943718659421943,0.06,-1.0,1.3819420061917642
2023-06-23 00:00:00,89.09512329101562,137.5664520263672,-1.4970625874960206,-0.025,-1.0,1.38222606550576
2023-06-26 00:00:00,90.01808166503906,139.73558044433594,-1.5002024873967454,0.115,-1.0,1.3803891323537498
2023-06-27 00:00:00,90.31265258789062,143.0536346435547,-1.5056680547406798,0.975,-1.0,1.3718506606130076
2023-06-28 00:00:00,88.47654724121094,141.93441772460938,-1.5124993117915604,1.304,-1.0,1.3680757818196936
2023-06-29 00:00:00,87.94633483886719,143.98468017578125,-1.5215173930970145,1.979,-1.0,1.3606635188334824
2023-06-30 00:00:00,88.76129150390625,146.88677978515625,-1.5316445045189382,2.092,-1.0,1.3579650318408936
2023-07-03 00:00:00,89.39950561523438,147.64942932128906,-1.5409762515486138,1.599,-1.0,1.3616408456666527
2023-07-05 00:00:00,91.1668701171875,144.78697204589844,-1.544567091759572,-0.606,0.0,1.3823456182469602
2023-07-06 00:00:00,90.49920654296875,143.8460235595703,-1.547071082408627,-0.642,0.0,1.3823456182469602
2023-07-07 00:00:00,90.36174011230469,145.37135314941406,-1.5507308117593726,-0.089,0.0,1.3823456182469602
2023-07-10 00:00:00,89.73334503173828,146.49057006835938,-1.5561112849120355,0.543,0.0,1.3823456182469602
2023-07-11 00:00:00,90.86249542236328,149.1549530029297,-1.5621249624757167,0.692,0.0,1.3823456182469602
2023-07-12 00:00:00,91.40252685546875,150.22463989257812,-1.5679503786545936,0.567,0.0,1.3823456182469602
2023-07-13 00:00:00,92.07019805908203,150.06617736816406,-1.5722224348377634,-0.067,0.0,1.3823456182469602
2023-07-14 00:00:00,91.39270782470703,148.31304931640625,-1.5753108485524376,-0.51,0.0,1.3823456182469602
2023-07-17 00:00:00,90.74466705322266,149.75912475585938,-1.5801246565988032,0.268,0.0,1.3823456182469602
2023-07-18 00:00:00,90.4697494506836,149.92750549316406,-1.5853464420742296,0.28,0.0,1.3823456182469602
2023-07-19 00:00:00,91.79527282714844,148.8280792236328,-1.5874240169658516,-1.255,0.0,1.3823456182469602
2023-07-20 00:00:00,94.15177154541016,148.29324340820312,-1.5851343340892126,-3.087,1.0,1.3823456182469602
2023-07-21 00:00:00,95.36929321289062,147.9267578125,-1.5803887674518458,-3.178,1.0,1.3761716479858133
2023-07-24 00:00:00,95.36929321289062,144.47991943359375,-1.5727016389477968,-3.332,1.0,1.3669559497251287
2023-07-25 00:00:00,95.93877410888672,145.6090545654297,-1.5654353161424877,-2.621,1.0,1.3701021614473792
2023-07-26 00:00:00,95.73258209228516,144.78697204589844,-1.558423744417557,-2.281,1.0,1.3706870116195418
2023-07-27 00:00:00,94.01431274414062,143.4201202392578,-1.5531631059058202,-1.685,1.0,1.3769249788714308
2023-07-28 00:00:00,93.90630340576172,144.02432250976562,-1.5492519965470812,-1.325,1.0,1.3808600441031285
2023-07-31 00:00:00,93.14044189453125,142.5286865234375,-1.5455909098171208,-1.246,1.0,1.3809712947662671
2023-08-01 00:00:00,91.64799499511719,144.16297912597656,-1.545639624978954,-0.322,1.0,1.3947441982783173
2023-08-02 00:00:00,91.63817596435547,140.41900634765625,-1.5430271990741542,-1.059,1.0,1.3823625078297122
2023-08-03 00:00:00,88.69255828857422,138.94320678710938,-1.54286439832496,-0.334,1.0,1.3935444839850835
2023-08-04 00:00:00,87.69104766845703,139.23043823242188,-1.5446609023890363,0.055,1.0,1.3996420107326282
2023-08-07 00:00:00,88.97730255126953,141.89479064941406,-1.547205510748471,0.173,1.0,1.4012556566276198
2023-08-08 00:00:00,89.53697204589844,141.96414184570312,-1.5489794545043962,-0.026,1.0,1.39785145631939
2023-08-09 00:00:00,89.3111343383789,138.74038696289062,-1.5480049125443882,-0.637,1.0,1.387790246253435
2023-08-10 00:00:00,88.77111053466797,138.75033569335938,-1.5474253791744155,-0.41,1.0,1.3910401513149284
2023-08-11 00:00:00,89.1834945678711,135.95443725585938,-1.543956113963674,-1.069,1.0,1.3796217972122564
2023-08-14 00:00:00,87.93651580810547,138.92942810058594,-1.5445902664121431,0.035,1.0,1.397253871689902
2023-08-15 00:00:00,86.87632751464844,138.17323303222656,-1.5465758550320077,0.22,0.0,1.3998548706029244
2023-08-16 00:00:00,88.01578521728516,136.9494171142578,-1.5460019453175384,-0.413,0.0,1.3998548706029244
2023-08-17 00:00:00,87.44110107421875,137.37725830078125,-1.5462338793057007,-0.057,0.0,1.3998548706029244
2023-08-18 00:00:00,88.50128936767578,138.82992553710938,-1.5464084943862209,-0.045,0.0,1.3998548706029244
2023-08-21 00:00:00,87.89688110351562,137.90460205078125,-1.5465690711027857,0.016,0.0,1.3998548706029244
2023-08-22 00:00:00,88.56073760986328,137.66580200195312,-1.5455995191503202,-0.294,0.0,1.3998548706029244
2023-08-23 00:00:00,89.21469116210938,137.1583709716797,-1.5431912262954195,-0.629,0.0,1.3998548706029244
2023-08-24 00:00:00,88.64000701904297,136.56137084960938,-1.5410034052343748,-0.452,0.0,1.3998548706029244
2023-08-25 00:00:00,89.05615997314453,137.67575073242188,-1.5394377452857289,-0.23,0.0,1.3998548706029244
2023-08-28 00:00:00,88.8877182006836,138.13343811035156,-1.5387244008927035,0.058,0.0,1.3998548706029244
2023-08-29 00:00:00,89.25432586669922,140.2527618408203,-1.5395722973826815,0.591,0.0,1.3998548706029244
2023-08-30 00:00:00,89.00662231445312,141.32733154296875,-1.5418817944640848,1.033,0.0,1.3998548706029244
2023-08-31 00:00:00,88.14459228515625,141.04873657226562,-1.545167164241211,1.276,0.0,1.3998548706029244
2023-09-01 00:00:00,87.5401840209961,141.2974853515625,-1.549398783835147,1.574,-1.0,1.3998548706029244
2023-09-05 00:00:00,85.71704864501953,135.7852783203125,-1.5510785678283452,0.685,-1.0,1.410390847093932
2023-09-06 00:00:00,86.00439453125,136.3623809814453,-1.5523505485931193,0.697,-1.0,1.410309287195424
2023-09-07 00:00:00,87.69872283935547,135.49673461914062,-1.5503550799375292,-0.493,0.0,1.4225424959136956
2023-09-08 00:00:00,88.43193054199219,135.01914978027344,-1.5465642101658936,-0.974,0.0,1.4225424959136956
2023-09-11 00:00:00,88.90753936767578,135.6658935546875,-1.5427105391423455,-1.0,0.0,1.4225424959136956
2023-09-12 00:00:00,89.37322235107422,133.16847229003906,-1.5362989430970724,-2.063,1.0,1.4225424959136956
2023-09-13 00:00:00,90.62167358398438,132.3326873779297,-1.5275619589852716,-2.687,1.0,1.4152962334563957
2023-09-14 00:00:00,91.53324127197266,133.71571350097656,-1.5191731067123508,-2.243,1.0,1.4180766246435494
2023-09-15 00:00:00,90.65139770507812,133.12867736816406,-1.5121968115850994,-1.665,1.0,1.4232024174068953
2023-09-18 00:00:00,90.73066711425781,131.82525634765625,-1.5047522301875318,-1.809,1.0,1.420415633878822
2023-09-19 00:00:00,90.33433532714844,131.54666137695312,-1.4981182563697186,-1.407,1.0,1.4238518900428492
2023-09-20 00:00:00,90.66130828857422,130.14373779296875,-1.4904776898169676,-1.682,1.0,1.4193279968329129
2023-09-21 00:00:00,90.02717590332031,127.64631652832031,-1.4819291608647622,-1.767,1.0,1.4163299866764034
2023-09-22 00:00:00,89.99745178222656,129.4770965576172,-1.4755707027455498,-0.987,1.0,1.4256601817033971
2023-09-25 00:00:00,89.4029541015625,131.38746643066406,-1.4725083872626026,-0.048,1.0,1.4372988767529777
2023-09-26 00:00:00,87.02494812011719,127.9647216796875,-1.4702626867992914,0.065,1.0,1.4383708020632815
2023-09-27 00:00:00,85.83594512939453,127.38762664794922,-1.4693451683752532,0.441,0.0,1.4433008107007388
2023-09-28 00:00:00,84.7063980102539,129.90493774414062,-1.4724054486690452,1.55,-1.0,1.4433008107007388
2023-09-29 00:00:00,84.74603271484375,129.1487579345703,-1.4751473039029803,1.168,-1.0,1.447419841092281
2023-10-02 00:00:00,80.87187194824219,128.7209014892578,-1.482372487729958,2.298,-1.0,1.428502995421336
2023-10-03 00:00:00,82.41757202148438,128.0045166015625,-1.4871272970843983,1.352,-1.0,1.4420703372340966
2023-10-04 00:00:00,83.42822265625,132.5515899658203,-1.4938871012533315,1.846,-1.0,1.432426854783769
2023-10-05 00:00:00,83.98309326171875,130.67108154296875,-1.498036105703168,1.047,-1.0,1.4443492631656025
2023-10-06 00:00:00,85.55851745605469,132.46205139160156,-1.500936497538426,0.823,-1.0,1.447481836951401
2023-10-09 00:00:00,86.74752044677734,128.1139678955078,-1.4978721545760094,-0.58,0.0,1.470217207025034
2023-10-10 00:00:00,87.31229400634766,129.6263427734375,-1.4946797486909538,-0.338,0.0,1.470217207025034
2023-10-11 00:00:00,87.63926696777344,131.8551025390625,-1.4932896347557447,0.104,0.0,1.470217207025034
2023-10-12 00:00:00,86.56916809082031,129.40744018554688,-1.491536581493867,-0.068,0.0,1.470217207025034
2023-10-13 00:00:00,87.21320343017578,127.81547546386719,-1.4875621420583818,-0.584,0.0,1.470217207025034
2023-10-16 00:00:00,87.84734344482422,129.6959991455078,-1.4843871179473604,-0.275,0.0,1.470217207025034
2023-10-17 00:00:00,88.08514404296875,130.79046630859375,-1.4822629366554592,-0.032,0.0,1.470217207025034
2023-10-18 00:00:00,87.4708251953125,127.13888549804688,-1.4780144299697227,-0.567,0.0,1.470217207025034
2023-10-19 00:00:00,86.86641693115234,123.71614074707031,-1.4714836845634685,-0.989,0.0,1.470217207025034
2023-10-20 00:00:00,86.26200866699219,124.09423828125,-1.4662312057221403,-0.521,0.0,1.470217207025034
2023-10-23 00:00:00,85.79631042480469,123.06940460205078,-1.4612807071565646,-0.465,0.0,1.470217207025034
2023-10-24 00:00:00,87.16366577148438,122.2336196899414,-1.45421127893743,-0.972,0.0,1.470217207025034
2023-10-25 00:00:00,87.50054931640625,120.87049865722656,-1.4456910259049023,-1.188,0.0,1.470217207025034
2023-10-26 00:00:00,88.48147583007812,121.39783477783203,-1.4368164989682184,-1.16,0.0,1.470217207025034
2023-10-27 00:00:00,86.66825103759766,120.11431121826172,-1.4297794653634608,-0.669,0.0,1.470217207025034
2023-10-30 00:00:00,86.67816162109375,121.20878601074219,-1.4245548391056428,-0.314,0.0,1.470217207025034
2023-10-31 00:00:00,86.98532104492188,122.15401458740234,-1.4204855829107228,-0.142,0.0,1.470217207025034
2023-11-01 00:00:00,88.34276580810547,122.35301971435547,-1.4153716599443864,-0.488,0.0,1.470217207025034
2023-11-02 00:00:00,89.3335952758789,124.2932357788086,-1.4109861406437165,-0.271,0.0,1.470217207025034
2023-11-03 00:00:00,89.24441528320312,127.66622161865234,-1.410207865531915,0.6,0.0,1.470217207025034
2023-11-06 00:00:00,89.71011352539062,127.1090316772461,-1.4089851087385579,0.283,0.0,1.470217207025034
2023-11-07 00:00:00,88.65982818603516,127.16873168945312,-1.4091653076808608,0.636,0.0,1.470217207025034
2023-11-08 00:00:00,87.86715698242188,128.90000915527344,-1.4120971644274194,1.255,0.0,1.470217207025034
2023-11-09 00:00:00,88.43193054199219,127.37000274658203,-1.4131589928758972,0.565,0.0,1.470217207025034
2023-11-10 00:00:00,88.53101348876953,128.80999755859375,-1.4149983258151388,0.834,0.0,1.470217207025034
2023-11-13 00:00:00,87.56000518798828,129.27999877929688,-1.4184609784397022,1.181,0.0,1.470217207025034
2023-11-14 00:00:00,90.5,133.50999450683594,-1.4219589039283802,1.067,0.0,1.470217207025034
2023-11-15 00:00:00,90.55000305175781,133.6199951171875,-1.4252075521920464,1.011,0.0,1.470217207025034
2023-11-16 00:00:00,91.12999725341797,135.16000366210938,-1.4287812115888157,1.098,0.0,1.470217207025034
2023-11-17 00:00:00,91.36000061035156,135.8699951171875,-1.4324466252157906,1.199,0.0,1.470217207025034
2023-11-20 00:00:00,90.94000244140625,135.55999755859375,-1.4360810851703198,1.198,0.0,1.470217207025034
2023-11-21 00:00:00,90.48999786376953,136.5800018310547,-1.4408850595634244,1.588,-1.0,1.470217207025034
2023-11-22 00:00:00,90.5199966430664,136.63999938964844,-1.445496998897936,1.453,-1.0,1.4717152270852245
2023-11-24 00:00:00,90.95999908447266,136.4499969482422,-1.4489775998068624,1.126,-1.0,1.4759747774043268
2023-11-27 00:00:00,90.66999816894531,137.2899932861328,-1.4531093414410345,1.284,-1.0,1.472683203948499
2023-11-28 00:00:00,90.80000305175781,138.0800018310547,-1.4575367237176484,1.257,-1.0,1.4719469872659967
2023-11-29 00:00:00,89.94000244140625,139.5500030517578,-1.4640486577052632,1.687,-1.0,1.464065014096604
2023-11-30 00:00:00,90.11000061035156,141.99000549316406,-1.4722915028563006,1.875,-1.0,1.4587917176798009
2023-12-01 00:00:00,91.68000030517578,143.6300048828125,-1.4795489464891427,1.452,-1.0,1.463578612326657
2023-12-04 00:00:00,91.98999786376953,143.14999389648438,-1.4852359690450823,1.05,-1.0,1.4688035505347674
2023-12-05 00:00:00,91.19000244140625,142.64999389648438,-1.4908201792097593,1.033,-1.0,1.4681611987997212
2023-12-06 00:00:00,91.6500015258789,142.6999969482422,-1.4953810240649477,0.747,-1.0,1.471928019220872
2023-12-07 00:00:00,92.44000244140625,144.97999572753906,-1.5003725298263764,0.842,-1.0,1.4696816708881535
2023-12-08 00:00:00,91.55000305175781,143.97999572753906,-1.5053141717727223,0.766,-1.0,1.4700971436550105
2023-12-11 00:00:00,91.87000274658203,145.83999633789062,-1.5110509090096276,0.912,-1.0,1.467106678788425
2023-12-12 00:00:00,91.7300033569336,145.3699951171875,-1.5162189589220354,0.695,-1.0,1.4696818699655347
2023-12-13 00:00:00,94.01000213623047,147.47000122070312,-1.5196974319749412,0.216,-1.0,1.4754819709614773
2023-12-14 00:00:00,91.91000366210938,149.14999389648438,-1.526864255775959,1.367,-1.0,1.4609296958600713
2023-12-15 00:00:00,89.8499984741211,148.67999267578125,-1.5363469575558304,1.862,-1.0,1.4545704552571765
2023-12-18 00:00:00,90.0,148.75,-1.545308676743667,1.513,-1.0,1.4579301093793477
2023-12-19 00:00:00,90.30999755859375,149.50999450683594,-1.553739811143609,1.314,-1.0,1.459587860704103
2023-12-20 00:00:00,89.3499984741211,146.32000732421875,-1.5599560068072307,0.513,-1.0,1.4674765519786015
2023-12-21 00:00:00,89.20999908447266,147.75,-1.5667981805690343,0.917,-1.0,1.463866435892217
2023-12-22 00:00:00,89.68000030517578,148.75,-1.573439217282855,0.727,-1.0,1.4650117121611759
2023-12-26 00:00:00,90.2699966430664,149.69000244140625,-1.5795417788901962,0.434,-1.0,1.4668565456901759
2023-12-27 00:00:00,89.80000305175781,150.16000366210938,-1.5861432889328486,0.711,-1.0,1.4647390840762542
2023-12-28 00:00:00,90.6500015258789,150.3800048828125,-1.59131698641935,-0.181,-1.0,1.470160114390035
2023-12-29 00:00:00,90.97000122070312,149.5500030517578,-1.5946907487349153,-1.192,0.0,1.4757474452065342
2024-01-02 00:00:00,92.41000366210938,147.27999877929688,-1.5935333000559253,-3.23,1.0,1.4757474452065342
2024-01-03 00:00:00,93.0,145.6199951171875,-1.5895171770209522,-3.412,1.0,1.4681593713641048
2024-01-04 00:00:00,93.25,144.91000366210938,-1.5844378509593688,-3.035,1.0,1.4659939708292133
2024-01-05 00:00:00,93.5199966430664,145.94000244140625,-1.5801422914159757,-2.388,1.0,1.469412001640758
2024-01-08 00:00:00,93.80999755859375,147.38999938964844,-1.5771810248507498,-1.836,1.0,1.4737105309968255
2024-01-09 00:00:00,93.69999694824219,146.22999572753906,-1.5738121614086933,-1.871,1.0,1.471426366903732
2024-01-10 00:00:00,94.31999969482422,147.2899932861328,-1.5707346482092088,-1.644,1.0,1.4726939630460065
2024-01-11 00:00:00,91.25,146.38999938964844,-1.5713393403400227,-0.579,1.0,1.4860387534911097
2024-01-12 00:00:00,91.62000274658203,145.5500030517578,-1.5712169086773853,-0.911,1.0,1.481167751246484
2024-01-16 00:00:00,91.55999755859375,143.75999450683594,-1.5695301002226403,-1.25,1.0,1.4758061352382346
2024-01-17 00:00:00,90.55000305175781,143.0800018310547,-1.5685246892417157,-0.947,1.0,1.479300450977344
2024-01-18 00:00:00,89.4000015258789,144.9499969482422,-1.5708814962700006,-0.06,1.0,1.491435217859482
2024-01-19 00:00:00,89.86000061035156,141.38999938964844,-1.5698482664544182,-1.059,1.0,1.476601944048486
2024-01-22 00:00:00,89.19999694824219,142.13999938964844,-1.5699354095531555,-0.567,1.0,1.4829041042858093
2024-01-23 00:00:00,89.12000274658203,142.44000244140625,-1.5705555123521049,-0.436,1.0,1.4842154174607534
2024-01-24 00:00:00,88.31999969482422,141.02999877929688,-1.571075630584376,-0.456,1.0,1.4835024071435658
2024-01-25 00:00:00,89.66999816894531,142.7899932861328,-1.5712260782600256,-0.519,1.0,1.4821824571269422
2024-01-26 00:00:00,90.0199966430664,143.0399932861328,-1.5710465975470553,-0.561,1.0,1.4811849028567794
2024-01-29 00:00:00,90.58999633789062,142.86000061035156,-1.5698917166978976,-0.769,1.0,1.4777792620743848
2024-01-30 00:00:00,90.68000030517578,143.07000732421875,-1.5687396517064949,-0.682,1.0,1.4783862208230791
2024-01-31 00:00:00,90.9000015258789,141.0399932861328,-1.5656058940909916,-1.153,1.0,1.4710092885553314
2024-02-01 00:00:00,92.77999877929688,141.5,-1.56025870352656,-1.548,1.0,1.4640673121174346
2024-02-02 00:00:00,91.0999984741211,140.08999633789062,-1.5560668552229486,-1.085,1.0,1.4697196871334026
2024-02-05 00:00:00,89.66999816894531,137.57000732421875,-1.5521230634113026,-1.015,1.0,1.469932251205169
2024-02-06 00:00:00,89.7699966430664,139.88999938964844,-1.5504111809070364,-0.384,1.0,1.478240039365887
2024-02-07 00:00:00,89.47000122070312,139.3699951171875,-1.5491238762608117,-0.318,1.0,1.4784569228747437
2024-02-08 00:00:00,88.66999816894531,138.6300048828125,-1.5484369364815094,-0.097,1.0,1.4804872375763725
2024-02-09 00:00:00,89.05999755859375,139.5800018310547,-1.5481972749446888,0.068,1.0,1.4818115672198557
2024-02-12 00:00:00,89.44999694824219,140.89999389648438,-1.5486721099178342,0.366,0.0,1.4842226368901406
