Date,x,y,hr,zScore,numUnits,cum rets
2022-05-02 00:00:00,62.83859634399414,126.66413879394531,-1.8974211460494521,2.755,-1.0,0.9834499910223495
2022-05-03 00:00:00,63.31050109863281,128.81082153320312,-1.9054854408232564,2.682,-1.0,0.9804805306190355
2022-05-04 00:00:00,65.10564422607422,132.80441284179688,-1.9141264564635452,2.364,-1.0,0.9804401564085611
2022-05-05 00:00:00,63.68064880371094,127.22500610351562,-1.919196327245324,1.373,-1.0,0.9931671825082168
2022-05-06 00:00:00,65.05012512207031,124.2853775024414,-1.9170251984017368,-0.087,-1.0,1.0149621605672903
2022-05-09 00:00:00,64.82803344726562,123.50823211669922,-1.9129168538736963,-0.099,-1.0,1.015305787509121
2022-05-10 00:00:00,62.44996643066406,121.46822357177734,-1.9113645269561348,0.633,-1.0,1.0044850940958039
2022-05-11 00:00:00,63.31050109863281,120.74935913085938,-1.9079442920734717,0.02,-1.0,1.0133743171292515
2022-05-12 00:00:00,60.01636505126953,119.79735565185547,-1.9101330570805828,1.396,-1.0,0.9911863869876552
2022-05-13 00:00:00,60.571556091308594,118.86477661132812,-1.9113427309437074,0.782,-1.0,0.9999928955854057
2022-05-16 00:00:00,61.61716079711914,117.02877044677734,-1.9080273003217956,-0.244,0.0,1.0154672760847956
2022-05-17 00:00:00,61.681949615478516,120.77851104736328,-1.9078260996400072,0.757,0.0,1.0154672760847956
2022-05-18 00:00:00,60.9139289855957,116.1447525024414,-1.9049003656799652,-0.086,0.0,1.0154672760847956
2022-05-19 00:00:00,60.93243408203125,119.1659164428711,-1.9047993158325955,0.702,0.0,1.0154672760847956
2022-05-20 00:00:00,60.93243408203125,116.2613296508789,-1.9021813543194774,-0.097,0.0,1.0154672760847956
2022-05-23 00:00:00,61.48762893676758,119.30192565917969,-1.901317626854707,0.452,0.0,1.0154672760847956
2022-05-24 00:00:00,62.995906829833984,117.99048614501953,-1.8963142478990445,-0.658,0.0,1.0154672760847956
2022-05-25 00:00:00,63.31050109863281,119.8847885131836,-1.8920853445809904,-0.224,0.0,1.0154672760847956
2022-05-26 00:00:00,63.87495422363281,122.69223022460938,-1.8902708214763555,0.298,0.0,1.0154672760847956
2022-05-27 00:00:00,64.82803344726562,126.3156967163086,-1.8911889686203225,0.758,0.0,1.0154672760847956
2022-05-31 00:00:00,64.68923950195312,122.8768081665039,-1.8892027587904487,-0.151,0.0,1.0154672760847956
2022-06-01 00:00:00,64.52268981933594,121.7887954711914,-1.8858052301236117,-0.386,0.0,1.0154672760847956
2022-06-02 00:00:00,65.10564422607422,125.11109161376953,-1.8847573559918864,0.286,0.0,1.0154672760847956
2022-06-03 00:00:00,64.5689468383789,121.87622833251953,-1.881911434324922,-0.454,0.0,1.0154672760847956
2022-06-06 00:00:00,64.21733093261719,123.49852752685547,-1.8813433057863895,0.299,0.0,1.0154672760847956
2022-06-07 00:00:00,64.9853515625,125.10137939453125,-1.8815364713448886,0.313,0.0,1.0154672760847956
2022-06-08 00:00:00,63.967491149902344,123.38195037841797,-1.8821130769833543,0.336,0.0,1.0154672760847956
2022-06-09 00:00:00,61.75596618652344,120.44821166992188,-1.8840902762487455,0.738,0.0,1.0154672760847956
2022-06-10 00:00:00,61.97804641723633,112.58930969238281,-1.8771787874938703,-2.152,1.0,1.0154672760847956
2022-06-13 00:00:00,57.72157287597656,110.06358337402344,-1.8745845249995807,-0.098,1.0,1.0411888293703422
2022-06-14 00:00:00,56.426116943359375,108.32471466064453,-1.8739560229267618,0.134,1.0,1.0445758268695242
2022-06-15 00:00:00,56.56491470336914,110.37444305419922,-1.875844152456433,0.748,0.0,1.0523493609969345
2022-06-16 00:00:00,55.82466125488281,105.40068817138672,-1.8742355171328906,-0.556,0.0,1.0523493609969345
2022-06-17 00:00:00,54.51994705200195,106.87725830078125,-1.8762539237168914,0.864,0.0,1.0523493609969345
2022-06-21 00:00:00,55.77839279174805,107.4406967163086,-1.8770500382099888,0.24,0.0,1.0523493609969345
2022-06-22 00:00:00,55.630340576171875,109.51956176757812,-1.8801634361756774,1.236,0.0,1.0523493609969345
2022-06-23 00:00:00,56.1855354309082,111.09329223632812,-1.8842978304347129,1.525,-1.0,1.0523493609969345
2022-06-24 00:00:00,58.1009521484375,117.55335235595703,-1.891698977849549,2.441,-1.0,1.0417066090396299
2022-06-27 00:00:00,58.54510498046875,117.8350601196289,-1.8988289514517425,1.853,-1.0,1.0459682307443088
2022-06-28 00:00:00,57.7308235168457,115.863037109375,-1.9049305428724939,1.431,-1.0,1.0494136107638785
2022-06-29 00:00:00,58.16572189331055,113.86188507080078,-1.9071259335590018,0.197,-1.0,1.0625693711938908
2022-06-30 00:00:00,58.5173454284668,111.07386779785156,-1.9041869160025564,-1.154,0.0,1.077340594022026
2022-07-01 00:00:00,59.649513244628906,114.49332427978516,-1.9015457284855648,-0.527,0.0,1.077340594022026
2022-07-05 00:00:00,57.722015380859375,115.36760711669922,-1.9043667959811479,1.246,0.0,1.077340594022026
2022-07-06 00:00:00,58.24599838256836,115.98933410644531,-1.9080068543572564,0.949,0.0,1.077340594022026
2022-07-07 00:00:00,58.685768127441406,115.69789123535156,-1.910322975279177,0.42,0.0,1.077340594022026
2022-07-08 00:00:00,58.451847076416016,114.5030288696289,-1.911276414543101,0.058,0.0,1.077340594022026
2022-07-11 00:00:00,58.47991943359375,110.90872955322266,-1.9076198169360297,-1.298,0.0,1.077340594022026
2022-07-12 00:00:00,58.27406311035156,112.71558380126953,-1.9055185237740828,-0.371,0.0,1.077340594022026
2022-07-13 00:00:00,58.19921112060547,112.40473175048828,-1.9037735801395992,-0.388,0.0,1.077340594022026
2022-07-14 00:00:00,57.34774398803711,111.55957794189453,-1.903129830475842,-0.106,0.0,1.077340594022026
2022-07-15 00:00:00,57.60038375854492,113.46360778808594,-1.9044568719752009,0.433,0.0,1.077340594022026
2022-07-18 00:00:00,57.05768585205078,111.62759399414062,-1.9052954564379105,0.049,0.0,1.077340594022026
2022-07-19 00:00:00,57.675235748291016,116.3487548828125,-1.9100370784129421,1.406,0.0,1.077340594022026
2022-07-20 00:00:00,56.94540786743164,116.6693344116211,-1.9174855412827025,1.797,-1.0,1.077340594022026
2022-07-21 00:00:00,56.851837158203125,119.43791961669922,-1.9285828809041308,2.429,-1.0,1.0672258420297582
2022-07-22 00:00:00,57.38517379760742,124.08138275146484,-1.9441161600114587,2.884,-1.0,1.0556681968153283
2022-07-25 00:00:00,58.71384048461914,123.2459487915039,-1.9558482822605454,1.447,-1.0,1.0729200938356793
2022-07-26 00:00:00,59.15361022949219,122.61451721191406,-1.9640306936449978,0.773,-1.0,1.0811932223914524
2022-07-27 00:00:00,59.31267166137695,123.30423736572266,-1.9711329102991244,0.721,-1.0,1.0813761101660557
2022-07-28 00:00:00,61.27759552001953,126.63626098632812,-1.9768225394243668,0.416,-1.0,1.0849671218769807
2022-07-29 00:00:00,63.41093444824219,125.59681701660156,-1.9756834318156224,-1.162,0.0,1.105632426962394
2022-08-01 00:00:00,62.68110275268555,125.61624908447266,-1.974513182814067,-0.808,0.0,1.105632426962394
2022-08-02 00:00:00,64.2062759399414,123.03223419189453,-1.9670560810188855,-2.299,1.0,1.105632426962394
2022-08-03 00:00:00,64.8425521850586,124.57681274414062,-1.958896181959986,-1.888,1.0,1.1088999434662499
2022-08-04 00:00:00,64.51504516601562,124.46995544433594,-1.9517989961191355,-1.49,1.0,1.112864034699444
2022-08-05 00:00:00,63.86942672729492,123.7219467163086,-1.9460898019191752,-1.214,1.0,1.1163990729390634
2022-08-08 00:00:00,63.3454475402832,124.62537384033203,-1.943314420316265,-0.594,1.0,1.1248719411100307
2022-08-09 00:00:00,63.72906494140625,124.15682983398438,-1.9401195967317317,-0.85,1.0,1.1207943186163494
2022-08-10 00:00:00,63.72906494140625,130.3553924560547,-1.943984237547827,0.785,0.0,1.1442060016060438
2022-08-11 00:00:00,64.56183624267578,130.16017150878906,-1.9472977875615745,0.232,0.0,1.1442060016060438
2022-08-12 00:00:00,66.19927215576172,132.3174591064453,-1.9490773627701787,-0.051,0.0,1.1442060016060438
2022-08-15 00:00:00,66.80744934082031,133.13743591308594,-1.9499358427611604,-0.14,0.0,1.1442060016060438
2022-08-16 00:00:00,67.19108581542969,133.93789672851562,-1.950560048007417,-0.113,0.0,1.1442060016060438
2022-08-17 00:00:00,67.42500305175781,130.98988342285156,-1.9473385454289944,-0.987,0.0,1.1442060016060438
2022-08-18 00:00:00,67.17237091064453,130.2968292236328,-1.9432237440764728,-0.968,0.0,1.1442060016060438
2022-08-19 00:00:00,66.93844604492188,128.79356384277344,-1.938066042145024,-1.134,0.0,1.1442060016060438
2022-08-22 00:00:00,65.71272277832031,124.19589233398438,-1.9306248621375126,-1.506,1.0,1.1442060016060438
2022-08-23 00:00:00,64.89867401123047,124.60586547851562,-1.925339729778904,-0.828,1.0,1.153520851502381
2022-08-24 00:00:00,64.71154022216797,124.957275390625,-1.9217158544562727,-0.548,1.0,1.157316108919652
2022-08-25 00:00:00,65.58171081542969,129.00831604003906,-1.92133267390408,0.096,1.0,1.1667428967016333
2022-08-26 00:00:00,64.81446075439453,123.03425598144531,-1.916848840658026,-1.025,1.0,1.1497200638950198
2022-08-29 00:00:00,65.17002868652344,122.9366455078125,-1.910866689800764,-1.084,1.0,1.1481468354614788
2022-08-30 00:00:00,64.3934097290039,124.73275756835938,-1.9085221115359978,-0.185,1.0,1.1620026548215496
2022-08-31 00:00:00,63.41093444824219,123.95185089111328,-1.9083902752868247,0.101,1.0,1.166503422291244
2022-09-01 00:00:00,63.878787994384766,121.57003021240234,-1.9052249643830994,-0.672,1.0,1.1538737206759269
2022-09-02 00:00:00,63.58872985839844,120.80863189697266,-1.9013304170025533,-0.635,1.0,1.1540345610021172
2022-09-06 00:00:00,61.63315963745117,120.74031066894531,-1.9015099098231891,0.334,0.0,1.1693277300845055
2022-09-07 00:00:00,63.65422058105469,124.79132843017578,-1.9028752546164631,0.407,0.0,1.1693277300845055
2022-09-08 00:00:00,64.12206268310547,124.71324920654297,-1.903370588939108,0.207,0.0,1.1693277300845055
2022-09-09 00:00:00,64.65540313720703,125.05490112304688,-1.9028874839255805,0.131,0.0,1.1693277300845055
2022-09-12 00:00:00,66.54547882080078,128.44212341308594,-1.9019779644038834,0.16,0.0,1.1693277300845055
2022-09-13 00:00:00,64.46826171875,121.52122497558594,-1.897796704655877,-0.822,0.0,1.1693277300845055
2022-09-14 00:00:00,65.02030944824219,117.29447937011719,-1.8873883293411824,-2.436,1.0,1.1693277300845055
2022-09-15 00:00:00,63.9068603515625,117.56780242919922,-1.8788274323116771,-1.251,1.0,1.18162347753542
2022-09-16 00:00:00,63.17702102661133,114.67839050292969,-1.8696361412908664,-1.521,1.0,1.1775963909260085
2022-09-19 00:00:00,63.972354888916016,116.38667297363281,-1.8611630815188513,-1.159,1.0,1.1808384390569615
2022-09-20 00:00:00,63.354801177978516,113.8779525756836,-1.8519639820521765,-1.443,1.0,1.177479807211222
2022-09-21 00:00:00,61.9512825012207,110.59807586669922,-1.8424675879642154,-1.443,1.0,1.1770691266813023
2022-09-22 00:00:00,61.567657470703125,109.25098419189453,-1.8328181389899583,-1.402,1.0,1.1768611914569083
2022-09-23 00:00:00,60.6881217956543,109.64144897460938,-1.8259553296763102,-0.525,1.0,1.187833870704543
2022-09-26 00:00:00,59.1068229675293,108.51886749267578,-1.8221424286343164,0.196,1.0,1.1970382401794006
2022-09-27 00:00:00,57.42259979248047,108.41148376464844,-1.8225802225658996,1.189,0.0,1.2108195718874695
2022-09-28 00:00:00,57.366458892822266,110.59807586669922,-1.8265843313205001,1.947,-1.0,1.2108195718874695
2022-09-29 00:00:00,54.385032653808594,108.94837188720703,-1.835495665463895,2.776,-1.0,1.194957859402048
2022-09-30 00:00:00,53.552127838134766,108.0503158569336,-1.8458846755150913,2.495,-1.0,1.1945983472586787
2022-10-03 00:00:00,56.22121810913086,111.46685028076172,-1.8543780167559747,1.792,-1.0,1.2038129946873788
2022-10-04 00:00:00,57.57468795776367,116.3085708618164,-1.8645136181672795,2.084,-1.0,1.1959960296921959
2022-10-05 00:00:00,56.874290466308594,117.3628158569336,-1.8771231827390504,2.235,-1.0,1.1886652934105246
2022-10-06 00:00:00,55.5113525390625,114.92243194580078,-1.8897422586544141,1.908,-1.0,1.1913150585156556
2022-10-07 00:00:00,55.49242401123047,111.64256286621094,-1.8979026522879427,1.012,-1.0,1.2083546451071565
2022-10-10 00:00:00,54.7541618347168,108.10888671875,-1.9019524388549407,0.447,-1.0,1.219446675785663
2022-10-11 00:00:00,54.385032653808594,108.11864471435547,-1.9054961976366023,0.532,-1.0,1.2169952053370356
2022-10-12 00:00:00,52.58671188354492,107.07416534423828,-1.9114607164250517,0.95,-1.0,1.2070306422452788
2022-10-13 00:00:00,53.855003356933594,109.54383087158203,-1.917797321845409,0.853,-1.0,1.2084208886353471
2022-10-14 00:00:00,52.08507537841797,107.69890594482422,-1.9256761231431454,1.041,-1.0,1.2029445338511287
2022-10-17 00:00:00,54.06322479248047,110.60783386230469,-1.9324774071317483,0.717,-1.0,1.2088401268979687
2022-10-18 00:00:00,54.347171783447266,113.95603942871094,-1.9418515627881905,1.156,-1.0,1.1984067417920512
2022-10-19 00:00:00,53.70356750488281,111.90612030029297,-1.950419917710462,0.847,-1.0,1.2042238787779795
2022-10-20 00:00:00,51.99988555908203,105.82469177246094,-1.954998608555496,0.179,-1.0,1.2186665298378343
2022-10-21 00:00:00,52.66242980957031,109.90499877929688,-1.9614974666542733,0.665,-1.0,1.207208918167222
2022-10-24 00:00:00,52.78547668457031,109.28025817871094,-1.9671221269317671,0.4,-1.0,1.2126660332662755
2022-10-25 00:00:00,53.807674407958984,110.26618194580078,-1.9709408691951158,0.131,-1.0,1.2183536877888363
2022-10-26 00:00:00,53.8360710144043,110.12952423095703,-1.9737787291285223,0.049,-1.0,1.2199499027262337
2022-10-27 00:00:00,55.255794525146484,109.68049621582031,-1.9722886487947442,-0.624,0.0,1.2344422646762887
2022-10-28 00:00:00,57.00679397583008,111.43757629394531,-1.9676573239587767,-0.905,0.0,1.2344422646762887
2022-10-31 00:00:00,56.82696533203125,111.45708465576172,-1.9629079755103607,-0.776,0.0,1.2344422646762887
2022-11-01 00:00:00,57.27180862426758,111.28137969970703,-1.9572127087426316,-1.003,0.0,1.2344422646762887
2022-11-02 00:00:00,55.61545944213867,107.45486450195312,-1.950953811936573,-1.079,0.0,1.2344422646762887
2022-11-03 00:00:00,55.32205581665039,107.09368896484375,-1.9451972626776144,-1.005,0.0,1.2344422646762887
2022-11-04 00:00:00,55.87101364135742,112.7065658569336,-1.945337822477562,0.003,0.0,1.2344422646762887
2022-11-07 00:00:00,54.65951156616211,113.5655746459961,-1.9509286338123901,0.659,0.0,1.2344422646762887
2022-11-08 00:00:00,54.90559768676758,113.6827163696289,-1.9572595731189253,0.434,0.0,1.2344422646762887
2022-11-09 00:00:00,54.24306106567383,112.05362701416016,-1.9629978470604903,0.205,0.0,1.2344422646762887
2022-11-10 00:00:00,57.06358337402344,122.48565673828125,-1.9739989916190863,1.38,0.0,1.2344422646762887
2022-11-11 00:00:00,56.66606140136719,127.66732788085938,-1.9927696677121178,2.502,-1.0,1.2344422646762887
2022-11-14 00:00:00,56.713382720947266,125.5770034790039,-2.009845950649464,1.524,-1.0,1.247604103681639
2022-11-15 00:00:00,57.42324447631836,127.08831787109375,-2.0253779452373912,1.241,-1.0,1.2509209571681783
2022-11-16 00:00:00,57.763980865478516,126.58782958984375,-2.0379914399581094,0.748,-1.0,1.2587765968841358
2022-11-17 00:00:00,56.63766860961914,124.30121612548828,-2.0489296606672682,0.601,-1.0,1.261317556315205
2022-11-18 00:00:00,58.417057037353516,126.0775146484375,-2.056463328918802,0.01,-1.0,1.2706983185151435
2022-11-21 00:00:00,58.64421844482422,126.64671325683594,-2.0626390554172707,-0.033,-1.0,1.2717488522309908
2022-11-22 00:00:00,59.08905792236328,129.53195190429688,-2.0703039515782597,0.401,-1.0,1.2657345655578953
2022-11-23 00:00:00,60.319496154785156,130.58203125,-2.076071723776168,-0.06,-1.0,1.2729477845847064
2022-11-25 00:00:00,60.79273986816406,130.87644958496094,-2.0800950044651376,-0.301,0.0,1.276572125855006
2022-11-28 00:00:00,59.99768829345703,127.87342834472656,-2.0817849285936503,-0.689,0.0,1.276572125855006
2022-11-29 00:00:00,60.11126708984375,129.37493896484375,-2.0841925149281013,-0.379,0.0,1.276572125855006
2022-11-30 00:00:00,63.09269714355469,132.70179748535156,-2.083284803130195,-1.09,0.0,1.276572125855006
2022-12-01 00:00:00,62.013694763183594,132.4466552734375,-2.083858872024573,-0.539,0.0,1.276572125855006
2022-12-02 00:00:00,61.87173080444336,134.7430877685547,-2.0877488653888343,0.105,0.0,1.276572125855006
2022-12-05 00:00:00,61.635108947753906,132.0835418701172,-2.0897433720391945,-0.486,0.0,1.276572125855006
2022-12-06 00:00:00,62.4869384765625,129.58102416992188,-2.0862175967450978,-1.47,0.0,1.276572125855006
2022-12-07 00:00:00,61.87173080444336,127.02944946289062,-2.0800818456408026,-1.579,1.0,1.276572125855006
2022-12-08 00:00:00,61.90012741088867,127.93230438232422,-2.074676289821881,-1.217,1.0,1.2811688456577752
2022-12-09 00:00:00,62.269256591796875,127.98139190673828,-2.069038183440178,-1.229,1.0,1.279745058712924
2022-12-12 00:00:00,63.81201934814453,129.85581970214844,-2.0622677334543127,-1.354,1.0,1.2763579482427116
2022-12-13 00:00:00,64.2379379272461,131.57321166992188,-2.0566692088015266,-1.021,1.0,1.2809037187637338
2022-12-14 00:00:00,64.02972412109375,130.29742431640625,-2.050839528505118,-1.078,1.0,1.279090776686863
2022-12-15 00:00:00,63.15895080566406,126.37193298339844,-2.0429876202974495,-1.396,1.0,1.2726548907935011
2022-12-16 00:00:00,61.61616897583008,123.8203353881836,-2.0358636510856285,-1.151,1.0,1.2768241439541392
2022-12-19 00:00:00,61.47420120239258,123.29039001464844,-2.029142562678838,-1.095,1.0,1.277518636487383
2022-12-20 00:00:00,61.40795135498047,122.43659973144531,-2.0221794578951364,-1.145,1.0,1.2763355353268528
2022-12-21 00:00:00,61.72975540161133,124.78208923339844,-2.0175327437630597,-0.728,1.0,1.2842833676830838
2022-12-22 00:00:00,61.04828643798828,123.51611328125,-2.0139091855079925,-0.666,1.0,1.2856228125538824
2022-12-23 00:00:00,61.691898345947266,124.36009216308594,-2.0102828367832446,-0.688,1.0,1.2847029223921584
2022-12-27 00:00:00,62.297645568847656,124.06568145751953,-2.005217092264836,-0.896,1.0,1.27989723024096
2022-12-28 00:00:00,61.54045486450195,121.9557113647461,-1.9994850411159613,-0.896,1.0,1.2789222077586593
2022-12-29 00:00:00,61.65342712402344,124.04605865478516,-1.9960663315332348,-0.417,1.0,1.287320220159471
2022-12-30 00:00:00,60.90669631958008,123.39835357666016,-1.9944040082201115,-0.168,1.0,1.2911755811314878
2023-01-03 00:00:00,61.538543701171875,124.47785186767578,-1.9930915025262272,-0.119,1.0,1.2907713766597766
2023-01-04 00:00:00,63.558555603027344,127.54957580566406,-1.9908921027338462,-0.274,1.0,1.2875655795396574
2023-01-05 00:00:00,62.122528076171875,120.81732940673828,-1.9843053610638364,-1.243,1.0,1.2733735910785717
2023-01-06 00:00:00,64.01808166503906,126.10694885253906,-1.978797941409646,-0.627,1.0,1.2808140278446252
2023-01-09 00:00:00,64.89884948730469,126.47005462646484,-1.9724333065655926,-0.922,1.0,1.2770152884036161
2023-01-10 00:00:00,65.2913589477539,127.36310577392578,-1.9664690430358625,-0.695,1.0,1.279002597434646
2023-01-11 00:00:00,66.45932006835938,129.63009643554688,-1.9610239086362038,-0.526,1.0,1.2802801525703127
2023-01-12 00:00:00,65.53069305419922,129.16883850097656,-1.9576236520491668,0.195,1.0,1.2864273768556926
2023-01-13 00:00:00,65.2913589477539,129.93431091308594,-1.9563303864666195,0.881,0.0,1.2915442285577927
2023-01-17 00:00:00,65.77003479003906,128.1874542236328,-1.9526941861487066,-0.231,0.0,1.2915442285577927
2023-01-18 00:00:00,63.94150161743164,125.40035247802734,-1.9496208503434713,0.307,0.0,1.2915442285577927
2023-01-19 00:00:00,62.86925506591797,121.29820251464844,-1.9446880962285802,-0.537,0.0,1.2915442285577927
2023-01-20 00:00:00,63.884056091308594,128.56039428710938,-1.945453234761461,2.172,-1.0,1.2915442285577927
2023-01-23 00:00:00,64.17125701904297,127.87342834472656,-1.9461700484638695,1.514,-1.0,1.2966545804396548
2023-01-24 00:00:00,64.92756652832031,128.5309600830078,-1.9459311687218894,1.297,-1.0,1.2997889153774382
2023-01-25 00:00:00,64.64993286132812,125.76345825195312,-1.9430404021666585,0.16,-1.0,1.3079055147056011
2023-01-26 00:00:00,65.45410919189453,125.32184600830078,-1.9375305975948387,-0.85,0.0,1.31442376753425
2023-01-27 00:00:00,65.80833435058594,124.97836303710938,-1.93067488919208,-1.192,0.0,1.31442376753425
2023-01-30 00:00:00,65.2339096069336,125.27278137207031,-1.9255326583122303,-0.123,0.0,1.31442376753425
2023-01-31 00:00:00,65.96150970458984,127.91267395019531,-1.9225204086038132,0.724,0.0,1.31442376753425
2023-02-01 00:00:00,64.97543334960938,129.55157470703125,-1.9240823551971444,2.481,-1.0,1.31442376753425
2023-02-02 00:00:00,65.80833435058594,131.926513671875,-1.9274545822055895,2.439,-1.0,1.3122965884174238
2023-02-03 00:00:00,64.01808166503906,128.29541015625,-1.930816366514682,2.024,-1.0,1.3138673852378786
2023-02-06 00:00:00,64.9179916381836,127.02944946289062,-1.9306751422226245,0.554,-1.0,1.3257325550291001
2023-02-07 00:00:00,64.43931579589844,128.8253631591797,-1.9326740341533377,1.692,-1.0,1.3155051426568458
2023-02-08 00:00:00,63.96064758300781,127.95193481445312,-1.9350961586038216,1.532,-1.0,1.3159152752332668
2023-02-09 00:00:00,63.0032844543457,126.46024322509766,-1.9378460184511626,1.516,-1.0,1.3151603074752156
2023-02-10 00:00:00,64.15211486816406,123.87922668457031,-1.9352474977584417,-0.617,0.0,1.3338700713847174
2023-02-13 00:00:00,65.11902618408203,126.34248352050781,-1.9322066168185161,-0.253,0.0,1.3338700713847174
2023-02-14 00:00:00,64.65951538085938,127.36310577392578,-1.931357089464275,0.618,0.0,1.3338700713847174
2023-02-15 00:00:00,64.81267547607422,128.59963989257812,-1.9321111496260415,0.968,0.0,1.3338700713847174
2023-02-16 00:00:00,64.35316467285156,127.34736633300781,-1.9327950521760036,0.734,0.0,1.3338700713847174
2023-02-17 00:00:00,64.70736694335938,128.0967559814453,-1.9334849264999117,0.711,0.0,1.3338700713847174
2023-02-21 00:00:00,63.864906311035156,124.43853759765625,-1.9319176079155274,-0.161,0.0,1.3338700713847174
2023-02-22 00:00:00,63.37665557861328,126.87407684326172,-1.9336053483336801,1.272,0.0,1.3338700713847174
2023-02-23 00:00:00,63.0511589050293,126.38105010986328,-1.9361008079109203,1.193,0.0,1.3338700713847174
2023-02-24 00:00:00,65.70301818847656,127.8995590209961,-1.9346732964417692,-0.408,0.0,1.3338700713847174
2023-02-27 00:00:00,65.2243423461914,129.7730255126953,-1.9354671273346955,0.803,0.0,1.3338700713847174
2023-02-28 00:00:00,63.386226654052734,130.2167510986328,-1.9410931006830592,2.257,-1.0,1.3338700713847174
2023-03-01 00:00:00,61.8353157043457,131.37042236328125,-1.9520370627686225,3.126,-1.0,1.3200352722417543
2023-03-02 00:00:00,62.76395797729492,132.95794677734375,-1.9632857372601156,2.449,-1.0,1.323670315926695
2023-03-03 00:00:00,64.42974090576172,135.5413818359375,-1.9730855902790545,1.822,-1.0,1.3286895072429354
2023-03-06 00:00:00,65.5019760131836,131.7747039794922,-1.9754099800127523,-0.182,-1.0,1.351795486978375
2023-03-07 00:00:00,64.51590728759766,129.08279418945312,-1.9749703946412756,-0.444,0.0,1.3545855848127322
2023-03-08 00:00:00,65.37752532958984,129.3786163330078,-1.972371237340337,-0.855,0.0,1.3545855848127322
2023-03-09 00:00:00,64.14253997802734,125.62179565429688,-1.9680043606746622,-1.214,0.0,1.3545855848127322
2023-03-10 00:00:00,63.4053840637207,124.24134063720703,-1.9635963535706207,-1.036,0.0,1.3545855848127322
2023-03-13 00:00:00,64.51590728759766,122.96934509277344,-1.9557146412616648,-1.848,1.0,1.3545855848127322
2023-03-14 00:00:00,65.38710021972656,127.35723114013672,-1.950495570880726,-0.865,1.0,1.366454579177055
2023-03-15 00:00:00,65.21477508544922,123.67929077148438,-1.9426459722992442,-1.656,1.0,1.355151595662762
2023-03-16 00:00:00,66.03809356689453,124.78366088867188,-1.9342024091237995,-1.595,1.0,1.3553993063907614
2023-03-17 00:00:00,64.87012481689453,120.78032684326172,-1.9243359841998162,-1.851,1.0,1.350903562006859
2023-03-20 00:00:00,66.05723571777344,123.56096649169922,-1.915377226628461,-1.479,1.0,1.3552541949804346
2023-03-21 00:00:00,64.9179916381836,124.83296203613281,-1.9110347676055137,-0.432,1.0,1.370264556488804
2023-03-22 00:00:00,63.48196029663086,121.88468933105469,-1.9078612062586564,-0.403,1.0,1.3702542561013336
2023-03-23 00:00:00,63.223480224609375,121.78609466552734,-1.905607008449708,-0.224,1.0,1.372471114582639
2023-03-24 00:00:00,65.46368408203125,123.68915557861328,-1.9011516399031412,-0.764,1.0,1.3641122201634885
2023-03-27 00:00:00,65.60728454589844,124.24134063720703,-1.8968018816927879,-0.586,1.0,1.3663823764067766
2023-03-28 00:00:00,65.77003479003906,124.45825958251953,-1.892692303691388,-0.502,1.0,1.3670994189207761
2023-03-29 00:00:00,66.82312774658203,126.4500732421875,-1.8889380965356284,-0.401,1.0,1.3680868563915698
2023-03-30 00:00:00,67.730712890625,128.01788330078125,-1.8853903698738823,-0.343,1.0,1.3684533868286664
2023-03-31 00:00:00,68.30158996582031,131.7155303955078,-1.8849905288288007,0.386,0.0,1.3786223047315789
2023-04-03 00:00:00,68.25321197509766,138.08535766601562,-1.8923084083304849,1.905,-1.0,1.3786223047315789
2023-04-04 00:00:00,68.01131439208984,136.38938903808594,-1.89952406191188,1.361,-1.0,1.3851325070630536
2023-04-05 00:00:00,69.91744995117188,137.0105743408203,-1.9029530508151957,0.507,-1.0,1.3971272816676268
2023-04-06 00:00:00,70.20771789550781,136.14288330078125,-1.9037288822110559,0.126,-1.0,1.4025925531627248
2023-04-10 00:00:00,70.47864532470703,136.40908813476562,-1.903575683728034,0.069,-1.0,1.4034750229648376
2023-04-11 00:00:00,70.44962310791016,137.35569763183594,-1.9042880795490502,0.301,-1.0,1.3999699579848712
2023-04-12 00:00:00,70.7011947631836,136.0836944580078,-1.9032860516936332,-0.117,-1.0,1.406178101761964
2023-04-13 00:00:00,70.5850830078125,137.34584045410156,-1.9035449032647074,0.28,-1.0,1.4007867612237777
2023-04-14 00:00:00,69.28852081298828,136.48797607421875,-1.9057615122661513,0.633,-1.0,1.3953624686751482
2023-04-17 00:00:00,69.74329376220703,138.9629364013672,-1.9099399783730568,0.951,-1.0,1.390524098922008
2023-04-18 00:00:00,69.7723159790039,139.63345336914062,-1.914885842047342,1.041,-1.0,1.3895359477254883
2023-04-19 00:00:00,70.38188934326172,138.5882568359375,-1.9173072800260806,0.51,-1.0,1.3982474901306623
2023-04-20 00:00:00,70.63346099853516,139.47569274902344,-1.919414483318136,0.683,-1.0,1.3973158190005939
2023-04-21 00:00:00,70.56573486328125,139.998291015625,-1.9219758462867296,0.918,-1.0,1.3956038909648407
2023-04-24 00:00:00,71.28174591064453,140.96463012695312,-1.9240141191526656,0.718,-1.0,1.3975998819446303
2023-04-25 00:00:00,71.37849426269531,138.46990966796875,-1.9229877664574715,-0.125,-1.0,1.4070569858886708
2023-04-26 00:00:00,70.63346099853516,135.7188720703125,-1.9200021833460807,-0.482,0.0,1.4111385255686482
2023-04-27 00:00:00,71.18498229980469,136.99085998535156,-1.91703817174987,-0.357,0.0,1.4111385255686482
2023-04-28 00:00:00,71.21400451660156,138.30230712890625,-1.9156068335461294,0.066,0.0,1.4111385255686482
2023-05-01 00:00:00,71.55265808105469,137.8092803955078,-1.9134294673022638,-0.31,0.0,1.4111385255686482
2023-05-02 00:00:00,70.90438079833984,137.65151977539062,-1.9123776641291546,0.064,0.0,1.4111385255686482
2023-05-03 00:00:00,69.3465805053711,136.40908813476562,-1.9134438460616174,0.592,0.0,1.4111385255686482
2023-05-04 00:00:00,70.1399917602539,133.60874938964844,-1.9104127561241722,-0.944,0.0,1.4111385255686482
2023-05-05 00:00:00,71.17530822753906,136.10340881347656,-1.9072606519063648,-0.776,0.0,1.4111385255686482
2023-05-08 00:00:00,71.01081848144531,136.7443389892578,-1.9053060094154148,-0.416,0.0,1.4111385255686482
2023-05-09 00:00:00,71.24303436279297,135.8331298828125,-1.9023533143281015,-0.903,0.0,1.4111385255686482
2023-05-10 00:00:00,71.7848892211914,135.5557861328125,-1.8980581308533353,-1.292,0.0,1.4111385255686482
2023-05-11 00:00:00,70.83665466308594,135.9321746826172,-1.8960447535939513,-0.311,0.0,1.4111385255686482
2023-05-12 00:00:00,71.29141998291016,136.78396606445312,-1.8946539009838141,-0.313,0.0,1.4111385255686482
2023-05-15 00:00:00,69.8980941772461,139.28985595703125,-1.898806645740749,1.68,-1.0,1.4111385255686482
2023-05-16 00:00:00,68.02099609375,138.00225830078125,-1.9062006283049342,2.193,-1.0,1.4045119224196254
2023-05-17 00:00:00,67.47914123535156,141.0529022216797,-1.918017070595344,2.938,-1.0,1.392362498460851
2023-05-18 00:00:00,66.61799621582031,141.2113800048828,-1.9318739774673002,2.768,-1.0,1.3890760225939522
2023-05-19 00:00:00,66.02777099609375,141.04298400878906,-1.9462732069809816,2.429,-1.0,1.3889977601769843
2023-05-22 00:00:00,65.48593139648438,139.33937072753906,-1.9591741170672001,1.935,-1.0,1.3945794604712558
2023-05-23 00:00:00,65.18598175048828,135.5756072998047,-1.9675819811743687,0.923,-1.0,1.4086950767013795
2023-05-24 00:00:00,64.42159271240234,132.138671875,-1.9724241998761574,0.305,-1.0,1.4173557023604029
2023-05-25 00:00:00,63.531410217285156,131.77218627929688,-1.9776350715528952,0.561,-1.0,1.413244514413317
2023-05-26 00:00:00,63.50238037109375,132.4556121826172,-1.9833866220395222,0.627,-1.0,1.4117909874282841
2023-05-30 00:00:00,63.58946990966797,133.06971740722656,-1.9893641524714207,0.614,-1.0,1.411554964553624
2023-05-31 00:00:00,65.33110809326172,130.03884887695312,-1.9880829557692417,-1.084,0.0,1.4362235439141986
2023-06-01 00:00:00,64.51834869384766,133.69371032714844,-1.9908619698137158,0.25,0.0,1.4362235439141986
2023-06-02 00:00:00,64.51834869384766,138.24986267089844,-1.9992535759578327,1.248,0.0,1.4362235439141986
2023-06-05 00:00:00,64.63446044921875,136.60568237304688,-2.0063571975547663,0.631,0.0,1.4362235439141986
2023-06-06 00:00:00,64.54737091064453,137.89329528808594,-2.014253474540072,0.855,0.0,1.4362235439141986
2023-06-07 00:00:00,66.47285461425781,140.4982452392578,-2.0204226964549896,0.405,0.0,1.4362235439141986
2023-06-08 00:00:00,66.3470687866211,139.82470703125,-2.025300933796297,0.203,0.0,1.4362235439141986
2023-06-09 00:00:00,65.52462768554688,138.33900451660156,-2.0297294941645125,0.168,0.0,1.4362235439141986
2023-06-12 00:00:00,65.4569091796875,138.65597534179688,-2.0342342042686634,0.196,0.0,1.4362235439141986
2023-06-13 00:00:00,65.67943572998047,139.97328186035156,-2.0393704518567803,0.298,0.0,1.4362235439141986
2023-06-14 00:00:00,65.96003723144531,139.35919189453125,-2.0430164669695254,-0.107,0.0,1.4362235439141986
2023-06-15 00:00:00,66.56961822509766,139.92376708984375,-2.0453283801817763,-0.36,0.0,1.4362235439141986
2023-06-16 00:00:00,67.9048843383789,141.7165069580078,-2.0461586296131613,-0.639,0.0,1.4362235439141986
2023-06-20 00:00:00,66.54058837890625,140.68641662597656,-2.0484746503673454,-0.236,0.0,1.4362235439141986
2023-06-21 00:00:00,67.46947479248047,140.9835662841797,-2.0492451183434666,-0.703,0.0,1.4362235439141986
2023-06-22 00:00:00,66.85021209716797,139.42852783203125,-2.049299144809664,-0.768,0.0,1.4362235439141986
2023-06-23 00:00:00,65.5633316040039,137.56643676757812,-2.0500151810695604,-0.615,0.0,1.4362235439141986
2023-06-26 00:00:00,66.56961822509766,139.73558044433594,-2.0509464288711023,-0.643,0.0,1.4362235439141986
2023-06-27 00:00:00,67.1501693725586,143.0536346435547,-2.0541361858816325,-0.117,0.0,1.4362235439141986
2023-06-28 00:00:00,66.15355682373047,141.93441772460938,-2.0586057912162197,0.025,0.0,1.4362235439141986
2023-06-29 00:00:00,66.3470687866211,143.9846954345703,-2.0648204494652123,0.363,0.0,1.4362235439141986
2023-06-30 00:00:00,67.19853973388672,146.88677978515625,-2.0722136089576355,0.533,0.0,1.4362235439141986
2023-07-03 00:00:00,67.56822204589844,147.64944458007812,-2.07933315278052,0.325,0.0,1.4362235439141986
2023-07-05 00:00:00,68.68312072753906,144.78697204589844,-2.0803363007588187,-1.431,0.0,1.4362235439141986
2023-07-06 00:00:00,67.9007339477539,143.8460235595703,-2.0806054482610965,-1.132,0.0,1.4362235439141986
2023-07-07 00:00:00,67.3432846069336,145.371337890625,-2.083548692107062,-0.242,0.0,1.4362235439141986
2023-07-10 00:00:00,66.8053970336914,146.49058532714844,-2.0892724309304866,0.533,0.0,1.4362235439141986
2023-07-11 00:00:00,67.8518295288086,149.15493774414062,-2.095725038387955,0.697,0.0,1.4362235439141986
2023-07-12 00:00:00,68.90804290771484,150.2246551513672,-2.100650204112706,0.117,0.0,1.4362235439141986
2023-07-13 00:00:00,69.38725280761719,150.06617736816406,-2.103623038997485,-0.531,0.0,1.4362235439141986
2023-07-14 00:00:00,68.9178237915039,148.31304931640625,-2.1051216301378277,-0.932,0.0,1.4362235439141986
2023-07-17 00:00:00,68.35060119628906,149.75912475585938,-2.108974168306792,0.269,0.0,1.4362235439141986
2023-07-18 00:00:00,67.84205627441406,149.92750549316406,-2.1143865676062963,0.709,0.0,1.4362235439141986
2023-07-19 00:00:00,69.08407592773438,148.8280792236328,-2.115815200793048,-1.144,0.0,1.4362235439141986
2023-07-20 00:00:00,70.56082916259766,148.29324340820312,-2.1123860594590376,-2.734,1.0,1.4362235439141986
2023-07-21 00:00:00,70.80531311035156,147.92677307128906,-2.1072133235965316,-2.575,1.0,1.434484709241543
2023-07-24 00:00:00,70.9422378540039,144.47991943359375,-2.098130871050164,-3.247,1.0,1.4239467631489235
2023-07-25 00:00:00,70.7955322265625,145.6090545654297,-2.0903923759851586,-2.241,1.0,1.4307069710024152
2023-07-26 00:00:00,70.51192474365234,144.78697204589844,-2.083296906862155,-1.971,1.0,1.4316363444202418
2023-07-27 00:00:00,69.29924011230469,143.4201202392578,-2.078084331973532,-1.368,1.0,1.436927228981445
2023-07-28 00:00:00,71.35298156738281,144.02432250976562,-2.0698415349761996,-2.134,1.0,1.4263843656883743
2023-07-31 00:00:00,70.37500762939453,142.5286865234375,-2.0621187576970113,-1.667,1.0,1.4301114800489474
2023-08-01 00:00:00,69.47527313232422,144.16297912597656,-2.058717548472781,-0.535,1.0,1.4430851690449256
2023-08-02 00:00:00,69.9642562866211,140.41900634765625,-2.051550612229381,-1.657,1.0,1.428120708832549
2023-08-03 00:00:00,68.79068756103516,138.9431915283203,-2.0450594831610887,-1.188,1.0,1.4330500027033541
2023-08-04 00:00:00,67.71491241455078,139.23043823242188,-2.0417679522329877,-0.403,1.0,1.4428167348475083
2023-08-07 00:00:00,68.2528076171875,141.89479064941406,-2.041037218064269,0.053,1.0,1.4485634004022925
2023-08-08 00:00:00,68.9471664428711,141.96412658691406,-2.0395088020123517,-0.272,1.0,1.4441664671068095
2023-08-09 00:00:00,68.73200988769531,138.74038696289062,-2.035005599588341,-0.926,1.0,1.4352816168780413
2023-08-10 00:00:00,68.4092788696289,138.75033569335938,-2.0308711463690803,-0.636,1.0,1.4387011663676181
2023-08-11 00:00:00,68.97650146484375,135.95443725585938,-2.0229835884657197,-1.472,1.0,1.4263458573018992
2023-08-14 00:00:00,68.22346496582031,138.92942810058594,-2.0195475198826545,-0.191,1.0,1.4434496575045517
2023-08-15 00:00:00,67.30416870117188,138.17323303222656,-2.0184793059675075,0.147,1.0,1.4477275933452787
2023-08-16 00:00:00,67.63668823242188,136.9494171142578,-2.016017465322432,-0.285,1.0,1.4414032245476582
2023-08-17 00:00:00,67.0890121459961,137.37725830078125,-2.0150286619423836,0.201,0.0,1.4472671914601263
2023-08-18 00:00:00,67.51932525634766,138.82992553710938,-2.015048304551636,0.428,0.0,1.4472671914601263
2023-08-21 00:00:00,67.48998260498047,137.90460205078125,-2.014378460600165,0.24,0.0,1.4472671914601263
2023-08-22 00:00:00,68.00830841064453,137.66580200195312,-2.0122536730052945,-0.108,0.0,1.4472671914601263
2023-08-23 00:00:00,68.37993621826172,137.1583709716797,-2.0086383547214735,-0.399,0.0,1.4472671914601263
2023-08-24 00:00:00,68.02786254882812,136.56137084960938,-2.0050689970846984,-0.249,0.0,1.4472671914601263
2023-08-25 00:00:00,68.38971710205078,137.67575073242188,-2.002174244726559,-0.002,0.0,1.4472671914601263
2023-08-28 00:00:00,68.18434143066406,138.13343811035156,-2.000551555090949,0.416,0.0,1.4472671914601263
2023-08-29 00:00:00,68.61465454101562,140.2527618408203,-2.000650934368953,0.941,0.0,1.4472671914601263
2023-08-30 00:00:00,68.38971710205078,141.32733154296875,-2.0027279005523586,1.462,0.0,1.4472671914601263
2023-08-31 00:00:00,67.33350372314453,141.04873657226562,-2.0070273864279162,1.933,-1.0,1.4472671914601263
2023-09-01 00:00:00,66.90320587158203,141.2974853515625,-2.0126918032498984,2.141,-1.0,1.4446094901294408
2023-09-05 00:00:00,65.74919891357422,135.7852783203125,-2.014904513055534,1.041,-1.0,1.457041404620661
2023-09-06 00:00:00,66.2381820678711,136.3623809814453,-2.015767383123226,0.862,-1.0,1.4587655087431821
2023-09-07 00:00:00,67.16725158691406,135.49673461914062,-2.0133719636933467,-0.121,-1.0,1.4682862356960893
2023-09-08 00:00:00,68.26258850097656,135.01914978027344,-2.0075807946597437,-0.97,0.0,1.4766945649341339
2023-09-11 00:00:00,68.33104705810547,135.6658935546875,-2.001991065605532,-0.705,0.0,1.4766945649341339
2023-09-12 00:00:00,68.74179077148438,133.16847229003906,-1.9933478682073367,-1.717,1.0,1.4766945649341339
2023-09-13 00:00:00,69.18187713623047,132.3326873779297,-1.9828545326155491,-1.97,1.0,1.4730320647380397
2023-09-14 00:00:00,69.94469451904297,133.71571350097656,-1.972597345703014,-1.646,1.0,1.4751959626203348
2023-09-15 00:00:00,69.98381805419922,133.12867736816406,-1.9624689630142116,-1.61,1.0,1.4753609044563627
2023-09-18 00:00:00,69.65130615234375,131.82525634765625,-1.952445449045949,-1.544,1.0,1.4755374218107742
2023-09-19 00:00:00,68.64399719238281,131.54666137695312,-1.9449573358966068,-0.756,1.0,1.4838455992864996
2023-09-20 00:00:00,68.21368408203125,130.14373779296875,-1.9379715385765597,-0.806,1.0,1.4835046066798172
2023-09-21 00:00:00,67.38240814208984,127.64631652832031,-1.9306598699503468,-0.928,1.0,1.4819768806634341
2023-09-22 00:00:00,66.57068634033203,129.4770965576172,-1.9273596149316008,0.3,0.0,1.4960105543439672
2023-09-25 00:00:00,66.15015411376953,131.38746643066406,-1.9280423025566025,1.182,0.0,1.4960105543439672
2023-09-26 00:00:00,64.35069274902344,127.9647216796875,-1.9296159477208554,1.119,0.0,1.4960105543439672
2023-09-27 00:00:00,63.8617057800293,127.38762664794922,-1.931676611789894,1.128,0.0,1.4960105543439672
2023-09-28 00:00:00,62.900245666503906,129.90493774414062,-1.938371629714299,2.157,-1.0,1.4960105543439672
2023-09-29 00:00:00,62.60350036621094,129.1487579345703,-1.9455068508646778,1.822,-1.0,1.4985117745995105
2023-10-02 00:00:00,60.377906799316406,128.7209014892578,-1.9564905520997191,2.427,-1.0,1.4853909236441238
2023-10-03 00:00:00,60.56584167480469,128.0045166015625,-1.9665469798913688,1.828,-1.0,1.492242743057749
2023-10-04 00:00:00,60.56584167480469,132.5515899658203,-1.9807027533986232,2.41,-1.0,1.477630842573852
2023-10-05 00:00:00,60.031700134277344,130.67108154296875,-1.9940690427925787,1.873,-1.0,1.4841207540183383
2023-10-06 00:00:00,61.3868408203125,132.46205139160156,-2.005433402413879,1.439,-1.0,1.4904160975928895
2023-10-09 00:00:00,61.851741790771484,128.1139678955078,-2.009813544074045,0.281,-1.0,1.5124081475863171
2023-10-10 00:00:00,62.583717346191406,129.6263427734375,-2.0122770632643987,0.241,-1.0,1.5128500585205706
2023-10-11 00:00:00,64.2257080078125,131.8551025390625,-2.012935062746681,-0.007,-1.0,1.517129956260197
2023-10-12 00:00:00,64.18614196777344,129.40744018554688,-2.010520771325643,-0.468,0.0,1.5256925854641874
2023-10-13 00:00:00,64.97747039794922,127.81547546386719,-2.0040606268086663,-1.008,0.0,1.5256925854641874
2023-10-16 00:00:00,65.43247985839844,129.6959991455078,-1.9981603387269309,-0.709,0.0,1.5256925854641874
2023-10-17 00:00:00,65.65009307861328,130.79046630859375,-1.993544439028598,-0.493,0.0,1.5256925854641874
2023-10-18 00:00:00,64.88844299316406,127.13888549804688,-1.987243238075656,-0.799,0.0,1.5256925854641874
2023-10-19 00:00:00,63.3057975769043,123.71614074707031,-1.9806822264895294,-0.727,0.0,1.5256925854641874
2023-10-20 00:00:00,62.029788970947266,124.09423828125,-1.9776746068609796,-0.076,0.0,1.5256925854641874
2023-10-23 00:00:00,61.169227600097656,123.06940460205078,-1.9764531397952907,0.085,0.0,1.5256925854641874
2023-10-24 00:00:00,63.365142822265625,122.2336196899414,-1.9700667721266434,-0.848,0.0,1.5256925854641874
2023-10-25 00:00:00,62.61338806152344,120.87049865722656,-1.9630067512875626,-0.716,0.0,1.5256925854641874
2023-10-26 00:00:00,62.9991569519043,121.39783477783203,-1.9560108017125202,-0.676,0.0,1.5256925854641874
2023-10-27 00:00:00,61.26814270019531,120.11431121826172,-1.9518153998660908,-0.212,0.0,1.5256925854641874
2023-10-30 00:00:00,62.0198974609375,121.20878601074219,-1.9481607018965845,-0.272,0.0,1.5256925854641874
2023-10-31 00:00:00,62.37599563598633,122.15401458740234,-1.9451604795448898,-0.222,0.0,1.5256925854641874
2023-11-01 00:00:00,63.276123046875,122.35301971435547,-1.940814483031789,-0.527,0.0,1.5256925854641874
2023-11-02 00:00:00,62.93981170654297,124.2932357788086,-1.9393030347032347,0.013,0.0,1.5256925854641874
2023-11-03 00:00:00,63.35525894165039,127.66622161865234,-1.9414139604564518,0.51,0.0,1.5256925854641874
2023-11-06 00:00:00,63.18709945678711,127.1090316772461,-1.9440023205117933,0.383,0.0,1.5256925854641874
2023-11-07 00:00:00,62.83100509643555,127.16873168945312,-1.9473555494065968,0.469,0.0,1.5256925854641874
2023-11-08 00:00:00,62.237510681152344,128.90000915527344,-1.9538485462063426,0.995,0.0,1.5256925854641874
2023-11-09 00:00:00,62.484798431396484,127.37000274658203,-1.9584429069495417,0.422,0.0,1.5256925854641874
2023-11-10 00:00:00,63.02883529663086,128.80999755859375,-1.9626723575945304,0.438,0.0,1.5256925854641874
2023-11-13 00:00:00,61.57477951049805,129.27999877929688,-1.9701926236175722,1.067,0.0,1.5256925854641874
2023-11-14 00:00:00,64.99724578857422,133.50999450683594,-1.9752271043850778,0.398,0.0,1.5256925854641874
2023-11-15 00:00:00,64.56201934814453,133.6199951171875,-1.9803516889845323,0.569,0.0,1.5256925854641874
2023-11-16 00:00:00,65.27420806884766,135.16000366210938,-1.9852669646527792,0.541,0.0,1.5256925854641874
2023-11-17 00:00:00,65.2148666381836,135.8699951171875,-1.9906779881113985,0.714,0.0,1.5256925854641874
2023-11-20 00:00:00,64.97747039794922,135.55999755859375,-1.9959904515111129,0.709,0.0,1.5256925854641874
2023-11-21 00:00:00,64.81919860839844,136.5800018310547,-2.0023581205351237,1.07,0.0,1.5256925854641874
2023-11-22 00:00:00,65.18518829345703,136.63999938964844,-2.0077819640369956,0.891,0.0,1.5256925854641874
2023-11-24 00:00:00,65.13572692871094,136.4499969482422,-2.0124867408629425,0.851,0.0,1.5256925854641874
2023-11-27 00:00:00,65.5511703491211,137.2899932861328,-2.016682858853536,0.75,0.0,1.5256925854641874
2023-11-28 00:00:00,65.76878356933594,138.0800018310547,-2.020833842767557,0.755,0.0,1.5256925854641874
2023-11-29 00:00:00,65.06649017333984,139.5500030517578,-2.0278200864442435,1.411,0.0,1.5256925854641874
2023-11-30 00:00:00,66.26336669921875,141.99000549316406,-2.0349878155634817,1.197,0.0,1.5256925854641874
2023-12-01 00:00:00,66.74805450439453,143.6300048828125,-2.042376164875324,1.183,0.0,1.5256925854641874
2023-12-04 00:00:00,66.63924407958984,143.14999389648438,-2.0489860715007464,0.92,0.0,1.5256925854641874
2023-12-05 00:00:00,65.99629211425781,142.64999389648438,-2.055812179044549,0.973,0.0,1.5256925854641874
2023-12-06 00:00:00,66.43152618408203,142.6999969482422,-2.06127913413354,0.561,0.0,1.5256925854641874
2023-12-07 00:00:00,66.57989501953125,144.97999572753906,-2.0681615715912742,0.996,0.0,1.5256925854641874
2023-12-08 00:00:00,66.71837615966797,143.97999572753906,-2.07348033550114,0.418,0.0,1.5256925854641874
2023-12-11 00:00:00,67.29208374023438,145.83999633789062,-2.0787665065188716,0.488,0.0,1.5256925854641874
2023-12-12 00:00:00,66.88653564453125,145.3699951171875,-2.0840550814841694,0.45,0.0,1.5256925854641874
2023-12-13 00:00:00,70.02214813232422,147.47000122070312,-2.0841869749681035,-1.329,0.0,1.5256925854641874
2023-12-14 00:00:00,69.55724334716797,149.14999389648438,-2.0859577903079796,-0.44,0.0,1.5256925854641874
2023-12-15 00:00:00,69.29017639160156,148.67999267578125,-2.0880584217200573,-0.546,0.0,1.5256925854641874
2023-12-18 00:00:00,69.0033187866211,148.75,-2.090786337159755,-0.407,0.0,1.5256925854641874
2023-12-19 00:00:00,69.2506103515625,149.50999450683594,-2.0937080717516436,-0.484,0.0,1.5256925854641874
2023-12-20 00:00:00,68.02405548095703,146.32000732421875,-2.095793613990649,-1.202,0.0,1.5256925854641874
2023-12-21 00:00:00,68.12297821044922,147.75,-2.0988366178098885,-0.595,0.0,1.5256925854641874
2023-12-22 00:00:00,68.72635650634766,148.75,-2.1015889824958363,-0.924,0.0,1.5256925854641874
2023-12-26 00:00:00,70.86293029785156,149.69000244140625,-2.1003135759382356,-2.97,1.0,1.5256925854641874
2023-12-27 00:00:00,71.1300048828125,150.16000366210938,-2.0981433768078306,-2.555,1.0,1.5259044322147635
2023-12-28 00:00:00,71.5999984741211,150.3800048828125,-2.0951391648344457,-2.519,1.0,1.524070125009829
2023-12-29 00:00:00,71.48999786376953,149.5500030517578,-2.091557912162834,-2.38,1.0,1.5229215470471136
2024-01-02 00:00:00,72.33999633789062,147.27999877929688,-2.0838968265930053,-3.231,1.0,1.5111991261498923
2024-01-03 00:00:00,71.58000183105469,145.6199951171875,-2.0758683089651235,-2.64,1.0,1.5128932449087729
2024-01-04 00:00:00,72.29000091552734,144.91000366210938,-2.06610706143519,-2.699,1.0,1.5078698953931458
2024-01-05 00:00:00,72.56999969482422,145.94000244140625,-2.0572029543142656,-2.114,1.0,1.5115878706617252
2024-01-08 00:00:00,73.16999816894531,147.38999938964844,-2.0494039172062823,-1.733,1.0,1.514232388518975
2024-01-09 00:00:00,73.0199966430664,146.22999572753906,-2.0415737792793296,-1.673,1.0,1.513281396728725
2024-01-10 00:00:00,72.33000183105469,147.2899932861328,-2.0368892837209502,-0.865,1.0,1.5228106873745957
2024-01-11 00:00:00,71.16999816894531,146.38999938964844,-2.034732687310522,-0.395,1.0,1.5283610975122217
2024-01-12 00:00:00,71.36000061035156,145.5500030517578,-2.0320075184359854,-0.635,1.0,1.5248088068965968
2024-01-16 00:00:00,70.16999816894531,143.75999450683594,-2.0300087975503143,-0.396,1.0,1.5274933641296582
2024-01-17 00:00:00,69.30000305175781,143.0800018310547,-2.029425929098992,-0.067,1.0,1.5314638312410929
2024-01-18 00:00:00,68.5999984741211,144.9499969482422,-2.03258197691345,0.775,0.0,1.5422734604850528
2024-01-19 00:00:00,68.29000091552734,141.38999938964844,-2.0332882690580703,-0.002,0.0,1.5422734604850528
2024-01-22 00:00:00,67.6500015258789,142.13999938964844,-2.035547232830172,0.57,0.0,1.5422734604850528
2024-01-23 00:00:00,67.01000213623047,142.44000244140625,-2.0396525337984373,0.983,0.0,1.5422734604850528
2024-01-24 00:00:00,65.18000030517578,141.02999877929688,-2.046307225543648,1.51,-1.0,1.5422734604850528
2024-01-25 00:00:00,67.04000091552734,142.7899932861328,-2.0509477425279625,0.854,-1.0,1.550683592928166
2024-01-26 00:00:00,67.5,143.0399932861328,-2.0541039414299243,0.604,-1.0,1.5539015667425247
2024-01-29 00:00:00,67.69999694824219,142.86000061035156,-2.056096865518238,0.433,-1.0,1.556474543888704
2024-01-30 00:00:00,67.30999755859375,143.07000732421875,-2.058756526066162,0.707,-1.0,1.5535174107062395
2024-01-31 00:00:00,67.4800033569336,141.0399932861328,-2.0588802317660453,0.0,-1.0,1.5620480912133061
2024-02-01 00:00:00,68.29000091552734,141.5,-2.0571682200305936,-0.306,0.0,1.5659162819205412
2024-02-02 00:00:00,66.87000274658203,140.08999633789062,-2.0567607778671597,0.183,0.0,1.5659162819205412
2024-02-05 00:00:00,65.55999755859375,137.57000732421875,-2.056853177314599,0.252,0.0,1.5659162819205412
2024-02-06 00:00:00,65.12999725341797,139.88999938964844,-2.0604340024053003,1.187,0.0,1.5659162819205412
2024-02-07 00:00:00,65.44000244140625,139.3699951171875,-2.063330667824706,0.755,0.0,1.5659162819205412
2024-02-08 00:00:00,64.72000122070312,138.6300048828125,-2.066671126363352,0.92,0.0,1.5659162819205412
2024-02-09 00:00:00,64.69999694824219,139.5800018310547,-2.0709449748900437,1.115,0.0,1.5659162819205412
2024-02-12 00:00:00,65.37999725341797,140.89999389648438,-2.0750506581804844,0.994,0.0,1.5659162819205412
