Date,x,y,hr,zScore,numUnits,cum rets
2022-02-14 00:00:00-05:00,101.20214080810547,291.43731689453125,-3.097805422916362,0.228,0.0,1.0
2022-02-15 00:00:00-05:00,98.96231842041016,295.0659484863281,-3.0806024779279397,0.933,0.0,1.0
2022-02-16 00:00:00-05:00,99.7386703491211,294.7288513183594,-3.0642476999945765,0.946,0.0,1.0
2022-02-17 00:00:00-05:00,100.47933197021484,287.26324462890625,-3.0413620414312112,0.588,0.0,1.0
2022-02-18 00:00:00-05:00,99.60482025146484,285.4984130859375,-3.0202534532676184,0.878,0.0,1.0
2022-02-22 00:00:00-05:00,97.73978424072266,284.15008544921875,-3.004643952916662,1.255,0.0,1.0
2022-02-23 00:00:00-05:00,98.45368957519531,280.0652770996094,-2.9859060954581067,0.959,0.0,1.0
2022-02-24 00:00:00-05:00,98.24842834472656,292.1312561035156,-2.978706419349163,1.725,-1.0,1.0
2022-02-25 00:00:00-05:00,95.73199462890625,301.2129821777344,-2.987317822081153,2.398,-1.0,0.9731723534647488
2022-02-28 00:00:00-05:00,102.54959106445312,311.3455810546875,-2.9889513301571107,1.667,-1.0,0.9900066231404455
2022-03-01 00:00:00-05:00,103.87921142578125,307.76300048828125,-2.983306904174902,1.209,-1.0,1.0012916965802787
2022-03-02 00:00:00-05:00,104.1737060546875,315.55340576171875,-2.9828317132088444,1.485,-1.0,0.9901764243648752
2022-03-03 00:00:00-05:00,103.77214813232422,321.9841613769531,-2.98929225825325,1.721,-1.0,0.9791700546936889
2022-03-04 00:00:00-05:00,105.96731567382812,315.8907775878906,-2.9858420716527987,1.024,-1.0,0.9986069057476079
2022-03-07 00:00:00-05:00,107.21662902832031,299.71466064453125,-2.965358250330787,0.045,-1.0,1.0272803490599243
2022-03-08 00:00:00-05:00,105.12850952148438,297.07489013671875,-2.9473568059885875,0.298,-1.0,1.0183093775539824
2022-03-09 00:00:00-05:00,101.52339172363281,304.53778076171875,-2.9457438666312954,1.276,-1.0,0.9880704451918275
2022-03-10 00:00:00-05:00,106.97566223144531,307.38592529296875,-2.935792835090352,0.528,-1.0,1.0076189864383485
2022-03-11 00:00:00-05:00,104.1201400756836,304.05145263671875,-2.9296813861638076,0.814,-1.0,0.9982852737678402
2022-03-14 00:00:00-04:00,104.26415252685547,296.2908935546875,-2.9180449786912135,0.37,-1.0,1.00989020984639
2022-03-15 00:00:00-04:00,102.44601440429688,306.6217956542969,-2.919157635138104,1.243,-1.0,0.9842621908859078
2022-03-16 00:00:00-04:00,101.70796966552734,320.942138671875,-2.9349593149836033,2.044,-1.0,0.9602608448908391
2022-03-17 00:00:00-04:00,106.09130096435547,320.3268127441406,-2.940570798923405,1.175,-1.0,0.9825218732109964
2022-03-18 00:00:00-04:00,104.2281494140625,325.8048400878906,-2.9531236087501416,1.771,-1.0,0.9672940516669241
2022-03-21 00:00:00-04:00,110.22261810302734,317.35955810546875,-2.944748641894907,-0.071,-1.0,1.0065884995960968
2022-03-22 00:00:00-04:00,108.75550079345703,320.4657897949219,-2.9403743521245427,0.475,-1.0,0.9942460081233342
2022-03-23 00:00:00-04:00,111.20369720458984,312.2983093261719,-2.924830250778086,-0.586,0.0,1.0156365305671538
2022-03-24 00:00:00-04:00,108.91751861572266,314.2632751464844,-2.9160910132900226,0.17,0.0,1.0156365305671538
2022-03-25 00:00:00-04:00,112.06775665283203,311.3753662109375,-2.899561001958959,-0.667,0.0,1.0156365305671538
2022-03-28 00:00:00-04:00,108.78251647949219,313.5288391113281,-2.8926497720876796,0.283,0.0,1.0156365305671538
2022-03-29 00:00:00-04:00,108.57548522949219,317.7168273925781,-2.8912087453509403,0.659,0.0,1.0156365305671538
2022-03-30 00:00:00-04:00,108.9895248413086,308.95391845703125,-2.8828354083315357,-0.103,0.0,1.0156365305671538
2022-03-31 00:00:00-04:00,107.3154067993164,296.4100036621094,-2.868370064676744,-0.626,0.0,1.0156365305671538
2022-04-01 00:00:00-04:00,108.30546569824219,276.38336181640625,-2.836713197583101,-2.285,1.0,1.0156365305671538
2022-04-04 00:00:00-04:00,108.75550079345703,275.599365234375,-2.804107327259455,-2.07,1.0,1.0181951755640475
2022-04-05 00:00:00-04:00,106.05529022216797,267.2731018066406,-2.773533025412774,-1.742,1.0,1.0226267580838337
2022-04-06 00:00:00-04:00,106.61332702636719,260.5645446777344,-2.7393160508216017,-1.939,1.0,1.01428762693327
2022-04-07 00:00:00-04:00,108.56649780273438,261.983642578125,-2.7044838504930637,-1.843,1.0,1.0140182889894898
2022-04-08 00:00:00-04:00,114.200927734375,257.9346008300781,-2.657837011113194,-2.502,1.0,0.9891543572408676
2022-04-11 00:00:00-04:00,109.21453857421875,256.1383972167969,-2.6227604959929973,-1.437,1.0,1.017330139294718
2022-04-12 00:00:00-04:00,112.12176513671875,258.0239562988281,-2.5876785548632695,-1.468,1.0,1.014035564925108
2022-04-13 00:00:00-04:00,111.8863296508789,264.5539245605469,-2.5611484343706423,-0.817,1.0,1.0323758805356964
2022-04-14 00:00:00-04:00,111.32490539550781,262.7378234863281,-2.5376435610447756,-0.639,1.0,1.0364813469119516
2022-04-18 00:00:00-04:00,111.66899108886719,263.3730163574219,-2.5163470824096703,-0.471,1.0,1.040412824675658
2022-04-19 00:00:00-04:00,110.25640106201172,271.7389221191406,-2.506191878858668,0.336,0.0,1.0642059977487583
2022-04-20 00:00:00-04:00,111.09854125976562,274.7955627441406,-2.498901093107196,0.463,0.0,1.0642059977487583
2022-04-21 00:00:00-04:00,108.20085906982422,272.98931884765625,-2.4966786790462834,0.849,0.0,1.0642059977487583
2022-04-22 00:00:00-04:00,105.14923858642578,266.9853515625,-2.496447653281314,0.936,0.0,1.0642059977487583
2022-04-25 00:00:00-04:00,101.21022033691406,277.6933288574219,-2.512186468241314,1.936,-1.0,1.0642059977487583
2022-04-26 00:00:00-04:00,101.04723358154297,270.0419006347656,-2.5230885378865064,1.353,-1.0,1.0800987787984706
2022-04-27 00:00:00-04:00,102.15196990966797,269.92279052734375,-2.530371132216814,1.12,-1.0,1.0870070929595281
2022-04-28 00:00:00-04:00,106.64336395263672,290.03875732421875,-2.5434123293859114,1.449,-1.0,1.0738935707580697
2022-04-29 00:00:00-04:00,105.72879028320312,277.9909973144531,-2.5485620478648596,0.857,-1.0,1.0926462325671997
2022-05-02 00:00:00-04:00,105.32130432128906,277.9117126464844,-2.553096352006375,0.847,-1.0,1.0917653739998037
2022-05-03 00:00:00-04:00,109.35088348388672,279.4002380371094,-2.55038532575727,0.401,-1.0,1.1069957544768119
2022-05-04 00:00:00-04:00,112.98201751708984,288.8082275390625,-2.5471653771715537,0.481,-1.0,1.1061095216863228
2022-05-05 00:00:00-04:00,111.75956726074219,281.1468811035156,-2.5406875947727277,0.286,-1.0,1.1128758577146338
2022-05-06 00:00:00-04:00,119.72815704345703,278.2093811035156,-2.5167881090784525,-0.828,0.0,1.1479411913222435
2022-05-09 00:00:00-04:00,106.79728698730469,269.13885498046875,-2.510921757046733,0.569,0.0,1.1479411913222435
2022-05-10 00:00:00-04:00,108.26425170898438,272.07635498046875,-2.5070433439125264,0.55,0.0,1.1479411913222435
2022-05-11 00:00:00-04:00,109.83080291748047,268.7716064453125,-2.498209114287603,0.172,0.0,1.1479411913222435
2022-05-12 00:00:00-04:00,109.1244888305664,267.60064697265625,-2.489993753919784,0.26,0.0,1.1479411913222435
2022-05-13 00:00:00-04:00,112.5383071899414,271.0442199707031,-2.478708318978406,0.029,0.0,1.1479411913222435
2022-05-16 00:00:00-04:00,114.42181396484375,260.4850769042969,-2.456543396448367,-0.677,0.0,1.1479411913222435
2022-05-17 00:00:00-04:00,115.38166046142578,269.6549072265625,-2.4402783022131644,-0.145,0.0,1.1479411913222435
2022-05-18 00:00:00-04:00,110.99890899658203,234.67279052734375,-2.407808790795516,-1.28,0.0,1.1479411913222435
2022-05-19 00:00:00-04:00,110.20207214355469,236.6575927734375,-2.3791565679899196,-0.842,0.0,1.1479411913222435
2022-05-20 00:00:00-04:00,110.51900482177734,241.331787109375,-2.3562755711521537,-0.505,0.0,1.1479411913222435
2022-05-23 00:00:00-04:00,115.97025299072266,248.1595001220703,-2.3315103378825746,-0.706,0.0,1.1479411913222435
2022-05-24 00:00:00-04:00,117.03875732421875,244.6067352294922,-2.3042745092740486,-0.878,0.0,1.1479411913222435
2022-05-25 00:00:00-04:00,120.49785614013672,249.4496307373047,-2.2769812600975987,-0.891,0.0,1.1479411913222435
2022-05-26 00:00:00-04:00,121.08644104003906,258.9766540527344,-2.258343484295719,-0.311,0.0,1.1479411913222435
2022-05-27 00:00:00-04:00,123.92073822021484,262.132568359375,-2.2400646953658456,-0.459,0.0,1.1479411913222435
2022-05-31 00:00:00-04:00,124.02033996582031,256.5687255859375,-2.219387931500919,-0.71,0.0,1.1479411913222435
2022-06-01 00:00:00-04:00,126.709716796875,255.7540740966797,-2.1955707849068755,-1.009,0.0,1.1479411913222435
2022-06-02 00:00:00-04:00,126.26602935791016,265.7489929199219,-2.1816599428842096,-0.157,0.0,1.1479411913222435
2022-06-03 00:00:00-04:00,129.018798828125,266.454345703125,-2.166353906883523,-0.408,0.0,1.1479411913222435
2022-06-06 00:00:00-04:00,127.77824401855469,267.30877685546875,-2.154925433553635,-0.075,0.0,1.1479411913222435
2022-06-07 00:00:00-04:00,132.14285278320312,265.31182861328125,-2.136988427447722,-0.688,0.0,1.1479411913222435
2022-06-08 00:00:00-04:00,131.97084045410156,252.23696899414062,-2.1113336284632434,-1.268,0.0,1.1479411913222435
2022-06-09 00:00:00-04:00,129.0278778076172,250.6373748779297,-2.090628232966101,-0.72,0.0,1.1479411913222435
2022-06-10 00:00:00-04:00,130.39520263671875,245.58030700683594,-2.0668859344132415,-0.994,0.0,1.1479411913222435
2022-06-13 00:00:00-04:00,120.18994903564453,238.14871215820312,-2.054435349323122,0.129,0.0,1.1479411913222435
2022-06-14 00:00:00-04:00,120.4928970336914,237.9202117919922,-2.043491841874684,0.23,0.0,1.1479411913222435
2022-06-15 00:00:00-04:00,117.00460815429688,240.6822052001953,-2.040457189909938,1.111,0.0,1.1479411913222435
2022-06-16 00:00:00-04:00,109.75263977050781,233.429443359375,-2.043708052255216,1.828,-1.0,1.1479411913222435
2022-06-17 00:00:00-04:00,102.50983428955078,230.59791564941406,-2.0558598555494885,2.569,-1.0,1.1236404679645722
2022-06-21 00:00:00-04:00,107.99932861328125,236.80746459960938,-2.064491301647289,2.019,-1.0,1.1367084314136107
2022-06-22 00:00:00-04:00,101.68366241455078,234.1746063232422,-2.0796977504036716,2.449,-1.0,1.1168282250749062
2022-06-23 00:00:00-04:00,98.37895965576172,246.01744079589844,-2.1083332863513786,3.024,-1.0,1.0817657561735015
2022-06-24 00:00:00-04:00,101.51844024658203,256.0520935058594,-2.139133089299067,2.632,-1.0,1.0811553904635156
2022-06-27 00:00:00-04:00,104.42840576171875,258.3769836425781,-2.1651718015878365,2.047,-1.0,1.0948175880634166
2022-06-28 00:00:00-04:00,108.60517120361328,249.09739685058594,-2.175126855365478,0.995,-1.0,1.1347991984447765
2022-06-29 00:00:00-04:00,103.93270111083984,253.6378173828125,-2.193537736215255,1.561,-1.0,1.1082425914092005
2022-06-30 00:00:00-04:00,101.38074493408203,254.62142944335938,-2.2165449425426065,1.647,-1.0,1.0993783856906973
2022-07-01 00:00:00-04:00,102.46394348144531,259.32080078125,-2.2401910556803424,1.533,-1.0,1.0996329801007592
2022-07-05 00:00:00-04:00,96.22174072265625,257.3436279296875,-2.2714542379719354,1.789,-1.0,1.080725172813896
2022-07-06 00:00:00-04:00,92.63247680664062,262.4802551269531,-2.3119145375978896,2.001,-1.0,1.0607067822237266
2022-07-07 00:00:00-04:00,96.45124053955078,271.91876220703125,-2.3513824682862112,1.721,-1.0,1.067117046793151
2022-07-08 00:00:00-04:00,96.86432647705078,271.25311279296875,-2.386749193110808,1.431,-1.0,1.0771932876663624
2022-07-11 00:00:00-04:00,95.19361114501953,267.78564453125,-2.4195903330439488,1.251,-1.0,1.0824253234877799
2022-07-12 00:00:00-04:00,91.32894134521484,261.109130859375,-2.452075586205279,1.166,-1.0,1.083028224203439
2022-07-13 00:00:00-04:00,91.2371597290039,247.7064666748047,-2.4718875009371404,0.541,-1.0,1.1146936940169554
2022-07-14 00:00:00-04:00,87.98133087158203,249.2762451171875,-2.496595471321572,0.786,-1.0,1.098819298286136
2022-07-15 00:00:00-04:00,89.9792251586914,253.65768432617188,-2.519899458622447,0.632,-1.0,1.1044466718207204
2022-07-18 00:00:00-04:00,92.06036376953125,259.8076477050781,-2.5421880265032786,0.543,-1.0,1.1067676356378875
2022-07-19 00:00:00-04:00,95.8434066772461,268.8984069824219,-2.5622874767769113,0.4,-1.0,1.111535289003847
2022-07-20 00:00:00-04:00,97.6470718383789,274.82977294921875,-2.581601678613886,0.333,-1.0,1.1126286670002354
2022-07-21 00:00:00-04:00,95.78791046142578,280.35382080078125,-2.6077933714260575,0.633,-1.0,1.097887875355849
2022-07-22 00:00:00-04:00,93.42005157470703,277.1546325683594,-2.63539912151592,0.607,-1.0,1.0971297497547026
2022-07-25 00:00:00-04:00,97.56382751464844,273.7667236328125,-2.6492631335929753,-0.167,-1.0,1.126554574363252
2022-07-26 00:00:00-04:00,95.96365356445312,271.3325500488281,-2.6616353570456295,-0.176,-1.0,1.1253816816886957
2022-07-27 00:00:00-04:00,100.07044219970703,271.7100830078125,-2.6640866568281547,-0.776,0.0,1.145441898830181
2022-07-28 00:00:00-04:00,99.33048248291016,291.26275634765625,-2.68274014880403,0.18,0.0,1.145441898830181
2022-07-29 00:00:00-04:00,102.87303161621094,301.5457763671875,-2.7026438872598377,0.04,0.0,1.145441898830181
2022-08-01 00:00:00-04:00,99.5062255859375,301.823974609375,-2.728708463071237,0.425,0.0,1.145441898830181
2022-08-02 00:00:00-04:00,99.14550018310547,292.25628662109375,-2.74641159432112,-0.432,0.0,1.145441898830181
2022-08-03 00:00:00-04:00,95.83416748046875,293.7863464355469,-2.770313451527546,0.174,0.0,1.145441898830181
2022-08-04 00:00:00-04:00,92.32859802246094,297.1444396972656,-2.804067754721044,1.059,0.0,1.145441898830181
2022-08-05 00:00:00-04:00,98.97900390625,301.2079772949219,-2.8245503439789363,-0.639,0.0,1.145441898830181
2022-08-08 00:00:00-04:00,99.14550018310547,304.92376708984375,-2.8442005512137114,-0.518,0.0,1.145441898830181
2022-08-09 00:00:00-04:00,100.11669158935547,299.966064453125,-2.855741717879484,-1.44,0.0,1.145441898830181
2022-08-10 00:00:00-04:00,100.8104019165039,313.3389587402344,-2.8745764880334668,-0.458,0.0,1.145441898830181
2022-08-11 00:00:00-04:00,105.01892852783203,313.348876953125,-2.8828552396956457,-1.674,1.0,1.145441898830181
2022-08-12 00:00:00-04:00,105.89763641357422,312.27587890625,-2.8860305385938796,-1.904,1.0,1.1390615067025849
2022-08-15 00:00:00-04:00,103.85347747802734,310.2689514160156,-2.89140553346976,-1.471,1.0,1.1445227427708182
2022-08-16 00:00:00-04:00,103.97374725341797,308.0633239746094,-2.8945336222313247,-1.687,1.0,1.1397960987030937
2022-08-17 00:00:00-04:00,105.15767669677734,301.25762939453125,-2.8888345995323497,-2.288,1.0,1.123874324926704
2022-08-18 00:00:00-04:00,110.05992126464844,301.3470458984375,-2.8712218050455425,-2.794,1.0,1.1042196301563798
2022-08-19 00:00:00-04:00,109.83792877197266,295.1176452636719,-2.8492813799850274,-2.607,1.0,1.09898654109738
2022-08-22 00:00:00-04:00,109.97666931152344,290.0208740234375,-2.8244755412645155,-2.457,1.0,1.0943848079073506
2022-08-23 00:00:00-04:00,112.64051818847656,290.060546875,-2.7957357246317582,-2.444,1.0,1.0873646092834994
2022-08-24 00:00:00-04:00,114.6014175415039,289.48431396484375,-2.7645309569335805,-2.334,1.0,1.0832704901640668
2022-08-25 00:00:00-04:00,115.82235717773438,298.96258544921875,-2.7408020216642788,-1.725,1.0,1.0976299350591483
2022-08-26 00:00:00-04:00,115.22113800048828,283.8013610839844,-2.709830325409116,-2.053,1.0,1.0809448868721585
2022-08-29 00:00:00-04:00,117.071044921875,277.9792785644531,-2.6726576616649655,-2.157,1.0,1.0699726380373276
2022-08-30 00:00:00-04:00,112.71452331542969,274.5118408203125,-2.64448734307044,-1.5,1.0,1.0897972536576197
2022-08-31 00:00:00-04:00,112.19654083251953,269.6535339355469,-2.6172067710864786,-1.421,1.0,1.0890379305759756
2022-09-01 00:00:00-04:00,109.80093383789062,275.9127502441406,-2.601933059003784,-0.726,1.0,1.1143333277683103
2022-09-02 00:00:00-04:00,112.4000244140625,270.46820068359375,-2.5800805799262707,-1.105,1.0,1.0969354262073583
2022-09-06 00:00:00-04:00,111.28083801269531,270.537841796875,-2.561615273272764,-0.826,1.0,1.1059564813902387
2022-09-07 00:00:00-04:00,108.3857421875,262.5609436035156,-2.5446663351052794,-0.722,1.0,1.108327072334004
2022-09-08 00:00:00-04:00,109.43093872070312,258.3835144042969,-2.5240936983286586,-0.88,1.0,1.0997489868710595
2022-09-09 00:00:00-04:00,114.1019515991211,267.3451232910156,-2.5027312063445186,-0.848,1.0,1.0990418878862644
2022-09-12 00:00:00-04:00,116.92304992675781,274.5163269042969,-2.4833086965039644,-0.692,1.0,1.10325822431185
2022-09-13 00:00:00-04:00,113.68572235107422,259.1990966796875,-2.4603988718772967,-0.862,1.0,1.094586247364961
2022-09-14 00:00:00-04:00,118.6672592163086,258.33380126953125,-2.4293521275139174,-1.233,1.0,1.0773207624772854
2022-09-15 00:00:00-04:00,114.7625503540039,254.98187255859375,-2.4048129204004307,-0.769,1.0,1.0941771979268766
2022-09-16 00:00:00-04:00,113.72317504882812,252.6644287109375,-2.3832667130646263,-0.6,1.0,1.0992036960546727
2022-09-19 00:00:00-04:00,112.76805877685547,256.8916015625,-2.3687349738336714,-0.156,1.0,1.1147419441878699
2022-09-20 00:00:00-04:00,112.01896667480469,252.2168426513672,-2.354041454502178,-0.178,1.0,1.1123105213683717
2022-09-21 00:00:00-04:00,110.71739196777344,250.24749755859375,-2.341359967705128,0.011,1.0,1.117214919430814
2022-09-22 00:00:00-04:00,110.82039642333984,243.06629943847656,-2.3244014140632068,-0.239,1.0,1.1061434459021497
2022-09-23 00:00:00-04:00,102.1776351928711,246.69668579101562,-2.326072028939593,1.318,0.0,1.1547611781720761
2022-09-26 00:00:00-04:00,98.48829650878906,246.54750061035156,-2.3361114528820393,1.867,-1.0,1.1547611781720761
2022-09-27 00:00:00-04:00,98.74112701416016,248.40744018554688,-2.3474088666081063,1.855,-1.0,1.154440932153645
2022-09-28 00:00:00-04:00,104.62158203125,254.8028564453125,-2.352377542013593,1.437,-1.0,1.170268545906762
2022-09-29 00:00:00-04:00,105.78268432617188,252.8135986328125,-2.352600876714234,1.138,-1.0,1.1797252759063788
2022-09-30 00:00:00-04:00,104.62158203125,247.43272399902344,-2.350215225492698,0.988,-1.0,1.1845896507720814
2022-10-03 00:00:00-04:00,112.29988098144531,260.4622497558594,-2.343880008274617,0.725,-1.0,1.1928097235329664
2022-10-04 00:00:00-04:00,117.20650482177734,271.69158935546875,-2.3374592657727957,0.802,-1.0,1.1919275670840717
2022-10-05 00:00:00-04:00,118.05860900878906,271.02520751953125,-2.3296311139020407,0.673,-1.0,1.1951029793211652
2022-10-06 00:00:00-04:00,119.41635131835938,275.68994140625,-2.3235210932683814,0.809,-1.0,1.1910691622677325
2022-10-07 00:00:00-04:00,119.34143829345703,258.6421203613281,-2.305577679582909,-0.326,0.0,1.2186685577942815
2022-10-10 00:00:00-04:00,115.83003234863281,266.4101257324219,-2.2997944131952126,0.893,0.0,1.2186685577942815
2022-10-11 00:00:00-04:00,114.89363861083984,266.3206481933594,-2.297404962770953,1.01,0.0,1.2186685577942815
2022-10-12 00:00:00-04:00,115.60529327392578,273.173583984375,-2.2994719024367427,1.31,0.0,1.2186685577942815
2022-10-13 00:00:00-04:00,119.23843383789062,267.1064147949219,-2.291185178722333,0.26,0.0,1.2186685577942815
2022-10-14 00:00:00-04:00,113.56804656982422,258.1448059082031,-2.2854801737664108,0.574,0.0,1.2186685577942815
2022-10-17 00:00:00-04:00,113.8788833618164,265.6741027832031,-2.285570932017553,1.073,0.0,1.2186685577942815
2022-10-18 00:00:00-04:00,116.7894287109375,267.1859436035156,-2.282496932380217,0.63,0.0,1.2186685577942815
2022-10-19 00:00:00-04:00,122.51634979248047,259.3582763671875,-2.264051704015523,-0.99,0.0,1.2186685577942815
2022-10-20 00:00:00-04:00,123.94808197021484,256.26495361328125,-2.2411198902530325,-1.235,0.0,1.2186685577942815
2022-10-21 00:00:00-04:00,127.16004943847656,259.0299987792969,-2.2167530094753602,-1.326,0.0,1.2186685577942815
2022-10-24 00:00:00-04:00,126.83980560302734,267.7727966308594,-2.201428585086328,-0.378,0.0,1.2186685577942815
2022-10-25 00:00:00-04:00,124.33425903320312,272.55694580078125,-2.195861894505267,0.516,0.0,1.2186685577942815
2022-10-26 00:00:00-04:00,126.50071716308594,273.0243835449219,-2.1887622717471915,0.198,0.0,1.2186685577942815
2022-10-27 00:00:00-04:00,126.56664276123047,262.9886474609375,-2.174981903783394,-0.544,0.0,1.2186685577942815
2022-10-28 00:00:00-04:00,125.92613220214844,269.1453552246094,-2.167143017144179,0.166,0.0,1.2186685577942815
2022-10-31 00:00:00-04:00,128.59178161621094,273.12384033203125,-2.159366865307564,0.056,0.0,1.2186685577942815
2022-11-01 00:00:00-04:00,128.39395141601562,271.40313720703125,-2.1514324866526295,-0.038,0.0,1.2186685577942815
2022-11-02 00:00:00-04:00,127.71577453613281,258.990234375,-2.1366126590513552,-0.97,0.0,1.2186685577942815
2022-11-03 00:00:00-04:00,130.34378051757812,261.61602783203125,-2.1204507487982123,-1.084,0.0,1.2186685577942815
2022-11-04 00:00:00-04:00,133.97015380859375,270.44830322265625,-2.106508979704359,-0.771,0.0,1.2186685577942815
2022-11-07 00:00:00-05:00,137.4647216796875,280.46417236328125,-2.095979667750586,-0.368,0.0,1.2186685577942815
2022-11-08 00:00:00-05:00,139.6499786376953,288.500732421875,-2.0891771315678325,0.065,0.0,1.2186685577942815
2022-11-09 00:00:00-05:00,131.5117645263672,280.3448181152344,-2.0893357632961136,0.915,0.0,1.2186685577942815
2022-11-10 00:00:00-05:00,134.04554748535156,303.987060546875,-2.1024067277492984,2.404,-1.0,1.2186685577942815
2022-11-11 00:00:00-05:00,138.56678771972656,312.42144775390625,-2.1146640123225042,2.095,-1.0,1.223242973997126
2022-11-14 00:00:00-05:00,137.69078063964844,312.58056640625,-2.126983248820685,2.08,-1.0,1.2227221451830437
2022-11-15 00:00:00-05:00,138.7457275390625,316.3800354003906,-2.1391429451857866,1.948,-1.0,1.2229365878521337
2022-11-16 00:00:00-05:00,135.1193389892578,305.51873779296875,-2.1481011225843343,1.49,-1.0,1.230178251995099
2022-11-17 00:00:00-05:00,136.0989532470703,297.1639099121094,-2.149111460291793,0.57,-1.0,1.248149152186191
2022-11-18 00:00:00-05:00,132.8304443359375,296.7362365722656,-2.1536653015308502,1.031,-1.0,1.237868198334174
2022-11-21 00:00:00-05:00,131.73780822753906,296.9948425292969,-2.1598349164489483,1.123,-1.0,1.2347746057327744
2022-11-22 00:00:00-05:00,135.9387969970703,294.3093566894531,-2.157921456526985,0.163,-1.0,1.2543419069322064
2022-11-23 00:00:00-05:00,134.36578369140625,295.43328857421875,-2.1584369487848147,0.511,-1.0,1.2467424859952765
2022-11-25 00:00:00-05:00,134.35635375976562,292.4095764160156,-2.1571576710378073,0.238,-1.0,1.2516055866411933
2022-11-28 00:00:00-05:00,128.71420288085938,286.7701110839844,-2.160096265860815,0.729,-1.0,1.240711025039725
2022-11-29 00:00:00-05:00,133.0847625732422,290.49993896484375,-2.159421476225458,0.257,-1.0,1.2504381983002824
2022-11-30 00:00:00-05:00,133.68759155273438,300.9832763671875,-2.164480095722567,0.949,-1.0,1.236030917443607
2022-12-01 00:00:00-05:00,132.37832641601562,299.2725524902344,-2.170315602298223,0.926,-1.0,1.2354331086756751
2022-12-02 00:00:00-05:00,130.8994903564453,301.2220153808594,-2.179081653186351,1.187,-1.0,1.2285928913582245
2022-12-05 00:00:00-05:00,126.34999084472656,288.2023620605469,-2.1853453985886944,0.85,-1.0,1.2354991529012462
2022-12-06 00:00:00-05:00,120.36875915527344,285.87249755859375,-2.1979903871583644,1.481,-1.0,1.2187505523397235
2022-12-07 00:00:00-05:00,118.83341979980469,285.4045715332031,-2.212204904943011,1.487,-1.0,1.2165298683742267
2022-12-08 00:00:00-05:00,117.33574676513672,286.0218811035156,-2.228168358361426,1.572,-1.0,1.212771851107743
2022-12-09 00:00:00-05:00,114.60417175292969,290.9603271484375,-2.250596827323765,2.113,-1.0,1.1973689688917522
2022-12-12 00:00:00-05:00,116.8553695678711,300.48870849609375,-2.2750527373237053,2.051,-1.0,1.1945366845463703
2022-12-13 00:00:00-05:00,120.05792236328125,303.32635498046875,-2.294828570466276,1.431,-1.0,1.2063233453147624
2022-12-14 00:00:00-05:00,120.0293197631836,308.05572509765625,-2.3158959439788824,1.49,-1.0,1.202456134999677
2022-12-15 00:00:00-05:00,120.69652557373047,297.8403015136719,-2.3273637733620003,0.499,-1.0,1.225168606746587
2022-12-16 00:00:00-05:00,119.87681579589844,293.59881591796875,-2.335414694494976,0.218,-1.0,1.2309201173249478
2022-12-19 00:00:00-05:00,119.6480712890625,288.9291687011719,-2.3396564856611155,-0.168,-1.0,1.239081912655334
2022-12-20 00:00:00-05:00,120.56309509277344,282.97515869140625,-2.337612649788991,-0.801,0.0,1.2529777537989832
2022-12-21 00:00:00-05:00,123.91815185546875,286.0616760253906,-2.331861724763229,-1.194,0.0,1.2529777537989832
2022-12-22 00:00:00-05:00,120.38199615478516,280.7449035644531,-2.3282637970361337,-1.017,0.0,1.2529777537989832
2022-12-23 00:00:00-05:00,124.49002838134766,284.8569641113281,-2.321406961975015,-1.493,0.0,1.2529777537989832
2022-12-27 00:00:00-05:00,125.89115905761719,285.5240478515625,-2.313057923505353,-1.653,1.0,1.2529777537989832
2022-12-28 00:00:00-05:00,121.43045043945312,281.023681640625,-2.3092987887764433,-1.104,1.0,1.2641525053531726
2022-12-29 00:00:00-05:00,122.60281372070312,285.3348388671875,-2.3073960277893195,-0.919,1.0,1.2673855450831173
2022-12-30 00:00:00-05:00,123.45111083984375,282.5470275878906,-2.3025551955363492,-1.222,1.0,1.2600680391093317
2023-01-03 00:00:00-05:00,118.6186752319336,281.29248046875,-2.3046690329309656,-0.317,1.0,1.2774147041592678
2023-01-04 00:00:00-05:00,118.53289031982422,287.5352783203125,-2.3117521832167736,0.216,0.0,1.2873886655977889
2023-01-05 00:00:00-05:00,118.55194854736328,280.2570495605469,-2.3136534129157353,-0.448,0.0,1.2873886655977889
2023-01-06 00:00:00-05:00,121.4971694946289,299.3935241699219,-2.3234768769632175,0.581,0.0,1.2873886655977889
2023-01-09 00:00:00-05:00,121.76404571533203,305.03887939453125,-2.3367373928707473,0.849,0.0,1.2873886655977889
2023-01-10 00:00:00-05:00,121.63060760498047,305.26788330078125,-2.349585949977867,0.725,0.0,1.2873886655977889
2023-01-11 00:00:00-05:00,120.9062271118164,311.7197265625,-2.366996232110035,1.214,0.0,1.2873886655977889
2023-01-12 00:00:00-05:00,124.33753967285156,311.8889465332031,-2.3778250015799913,0.348,0.0,1.2873886655977889
2023-01-13 00:00:00-05:00,124.17926788330078,313.9798889160156,-2.38877908050446,0.418,0.0,1.2873886655977889
2023-01-17 00:00:00-05:00,124.75479888916016,313.2131652832031,-2.3972971367914795,0.097,0.0,1.2873886655977889
2023-01-18 00:00:00-05:00,123.53659057617188,314.28851318359375,-2.4076074468103466,0.326,0.0,1.2873886655977889
2023-01-19 00:00:00-05:00,125.93460845947266,309.3898620605469,-2.4098016568382583,-0.696,0.0,1.2873886655977889
2023-01-20 00:00:00-05:00,127.33506774902344,315.642578125,-2.4130089136742296,-0.457,0.0,1.2873886655977889
2023-01-23 00:00:00-05:00,128.70672607421875,321.45721435546875,-2.4177429931515677,-0.276,0.0,1.2873886655977889
2023-01-24 00:00:00-05:00,127.34465026855469,319.5057678222656,-2.4231120688526406,-0.202,0.0,1.2873886655977889
2023-01-25 00:00:00-05:00,127.09526062011719,319.167236328125,-2.428243809831214,-0.233,0.0,1.2873886655977889
2023-01-26 00:00:00-05:00,130.3853302001953,317.8629150390625,-2.426544978171254,-1.011,0.0,1.2873886655977889
2023-01-27 00:00:00-05:00,129.1671600341797,332.33978271484375,-2.43623493370405,0.492,0.0,1.2873886655977889
2023-01-30 00:00:00-05:00,126.71158599853516,320.48150634765625,-2.442121370276585,-0.086,0.0,1.2873886655977889
2023-01-31 00:00:00-05:00,126.85547637939453,331.7921142578125,-2.4545934454918723,0.882,0.0,1.2873886655977889
2023-02-01 00:00:00-05:00,122.09778594970703,366.02276611328125,-2.4978917330467834,3.876,-1.0,1.2873886655977889
2023-02-02 00:00:00-05:00,119.66138458251953,369.7962951660156,-2.5473368967008327,3.374,-1.0,1.2815442594110293
2023-02-03 00:00:00-05:00,119.53669738769531,369.3980407714844,-2.5934226185968257,2.656,-1.0,1.2897713858927982
2023-02-06 00:00:00-05:00,118.77892303466797,367.9642639160156,-2.6359388556887615,2.151,-1.0,1.2964060322132238
2023-02-07 00:00:00-05:00,122.56779479980469,364.11114501953125,-2.6651594795498923,1.139,-1.0,1.321626819373826
2023-02-08 00:00:00-05:00,123.39271545410156,364.3102111816406,-2.6892813463393495,0.829,-1.0,1.3287746414169155
2023-02-09 00:00:00-05:00,121.97308349609375,353.45758056640625,-2.706040756383249,0.317,-1.0,1.3420573763822274
2023-02-10 00:00:00-05:00,128.66835021972656,347.4836730957031,-2.704089552859802,-0.965,0.0,1.376339832220299
2023-02-13 00:00:00-05:00,127.84344482421875,354.41339111328125,-2.7068292048707545,-0.51,0.0,1.376339832220299
2023-02-14 00:00:00-05:00,127.6995849609375,357.1315612792969,-2.7118896553344016,-0.408,0.0,1.376339832220299
2023-02-15 00:00:00-05:00,123.28719329833984,355.6579895019531,-2.723912423454918,0.05,0.0,1.376339832220299
2023-02-16 00:00:00-05:00,120.03548431396484,350.40093994140625,-2.7380767299532205,0.124,0.0,1.376339832220299
2023-02-17 00:00:00-05:00,113.589599609375,353.29827880859375,-2.7655608189068936,1.066,0.0,1.376339832220299
2023-02-21 00:00:00-05:00,114.3665542602539,341.2110595703125,-2.7824265186903,0.095,0.0,1.376339832220299
2023-02-22 00:00:00-05:00,112.7742691040039,340.5240173339844,-2.799642583808832,0.174,0.0,1.376339832220299
2023-02-23 00:00:00-05:00,114.6543197631836,343.7798156738281,-2.8142051911298926,-0.06,0.0,1.376339832220299
2023-02-24 00:00:00-05:00,109.59928131103516,338.06475830078125,-2.8334473947858534,0.29,0.0,1.376339832220299
2023-02-27 00:00:00-05:00,110.06929779052734,340.90240478515625,-2.852861733042184,0.235,0.0,1.376339832220299
2023-02-28 00:00:00-05:00,108.40985870361328,338.18109130859375,-2.872344591181058,0.217,0.0,1.376339832220299
2023-03-01 00:00:00-05:00,113.19631958007812,337.5331115722656,-2.8800530407786633,-0.693,0.0,1.376339832220299
2023-03-02 00:00:00-05:00,115.87251281738281,353.6417236328125,-2.891969885020864,-0.256,0.0,1.376339832220299
2023-03-03 00:00:00-05:00,116.80294799804688,353.93084716796875,-2.901605218080692,-0.466,0.0,1.376339832220299
2023-03-06 00:00:00-05:00,115.97802734375,351.8275451660156,-2.9104106605628632,-0.504,0.0,1.376339832220299
2023-03-07 00:00:00-05:00,113.4361343383789,348.6875305175781,-2.921485231356592,-0.329,0.0,1.376339832220299
2023-03-08 00:00:00-05:00,113.02365112304688,349.32550048828125,-2.933249424219571,-0.3,0.0,1.376339832220299
2023-03-09 00:00:00-05:00,110.3091049194336,341.8792419433594,-2.9445434564521857,-0.369,0.0,1.376339832220299
2023-03-10 00:00:00-05:00,107.6041259765625,335.30023193359375,-2.955954436232418,-0.38,0.0,1.376339832220299
2023-03-13 00:00:00-04:00,104.64976501464844,328.1730041503906,-2.9677386919150437,-0.373,0.0,1.376339832220299
2023-03-14 00:00:00-04:00,104.74568176269531,332.5290832519531,-2.9817420095873337,-0.23,0.0,1.376339832220299
2023-03-15 00:00:00-04:00,98.240234375,331.4126892089844,-3.0086788660501944,0.711,0.0,1.376339832220299
2023-03-16 00:00:00-04:00,101.14445495605469,336.4366149902344,-3.0325012560016087,0.28,0.0,1.376339832220299
2023-03-17 00:00:00-04:00,99.46967315673828,330.50555419921875,-3.0536966543222808,0.07,0.0,1.376339832220299
2023-03-20 00:00:00-04:00,102.0834732055664,332.36962890625,-3.0684593281835872,-0.451,0.0,1.376339832220299
2023-03-21 00:00:00-04:00,105.15228271484375,335.0809326171875,-3.076256532997322,-0.922,0.0,1.376339832220299
2023-03-22 00:00:00-04:00,102.35454559326172,329.7679138183594,-3.0851693802711124,-0.734,0.0,1.376339832220299
2023-03-23 00:00:00-04:00,101.43486022949219,328.4521179199219,-3.094726614079553,-0.681,0.0,1.376339832220299
2023-03-24 00:00:00-04:00,102.12220001220703,328.4521179199219,-3.102007588157812,-0.935,0.0,1.376339832220299
2023-03-27 00:00:00-04:00,104.91993713378906,333.42620849609375,-3.1055892495181943,-1.405,0.0,1.376339832220299
2023-03-28 00:00:00-04:00,106.8851318359375,330.97406005859375,-3.101818779768541,-2.168,1.0,1.376339832220299
2023-03-29 00:00:00-04:00,109.0826644897461,330.32611083984375,-3.0917209014599583,-2.547,1.0,1.3668086886707407
2023-03-30 00:00:00-04:00,109.91520690917969,332.54901123046875,-3.081470307932059,-2.202,1.0,1.3679641573132266
2023-03-31 00:00:00-04:00,110.97040557861328,339.7560119628906,-3.0751383493589057,-1.744,1.0,1.3748041877092276
2023-04-03 00:00:00-04:00,117.53396606445312,333.1470947265625,-3.0493759696272384,-3.24,1.0,1.3404397332304716
2023-04-04 00:00:00-04:00,115.80110931396484,327.6745910644531,-3.023658464184673,-2.616,1.0,1.3445555067801562
2023-04-05 00:00:00-04:00,116.52716064453125,323.9365234375,-2.9958498389787356,-2.45,1.0,1.3405543164311726
2023-04-06 00:00:00-04:00,115.55908966064453,324.7339782714844,-2.9731533151167184,-1.871,1.0,1.3500116797347608
2023-04-10 00:00:00-04:00,116.52716064453125,333.7253112792969,-2.957692357395143,-1.326,1.0,1.3616788402467797
2023-04-11 00:00:00-04:00,117.79534149169922,338.9087219238281,-2.945536779278035,-1.085,1.0,1.3658550744637887
2023-04-12 00:00:00-04:00,118.40521240234375,338.9785461425781,-2.9335906315257247,-1.04,1.0,1.3654003567958883
2023-04-13 00:00:00-04:00,118.21517181396484,331.7117004394531,-2.9177977743118073,-1.249,1.0,1.358243831202858
2023-04-14 00:00:00-04:00,118.52705383300781,337.59295654296875,-2.906696308579917,-0.827,1.0,1.367460855441247
2023-04-17 00:00:00-04:00,117.71809387207031,339.7361145019531,-2.9004177926807593,-0.474,1.0,1.375144210493167
2023-04-18 00:00:00-04:00,115.98322296142578,342.3078918457031,-2.900802948047303,0.022,1.0,1.3862807554371717
2023-04-19 00:00:00-04:00,115.78829193115234,344.90960693359375,-2.9041978606728085,0.201,0.0,1.3903532083424692
2023-04-20 00:00:00-04:00,115.26197814941406,345.78680419921875,-2.909389940960041,0.331,0.0,1.3903532083424692
2023-04-21 00:00:00-04:00,114.3360595703125,347.7405700683594,-2.917744077916725,0.565,0.0,1.3903532083424692
2023-04-24 00:00:00-04:00,116.15865325927734,353.31280517578125,-2.925914712965888,0.524,0.0,1.3903532083424692
2023-04-25 00:00:00-04:00,113.71228790283203,338.2906799316406,-2.9276088679989014,0.038,0.0,1.3903532083424692
2023-04-26 00:00:00-04:00,112.72789764404297,304.54833984375,-2.9058295029226042,-1.637,1.0,1.3903532083424692
2023-04-27 00:00:00-04:00,112.9033203125,312.2138977050781,-2.8885606102843853,-1.015,1.0,1.4046175448208467
2023-04-28 00:00:00-04:00,116.44129943847656,319.37109375,-2.8709831993951327,-1.016,1.0,1.403063654849095
2023-05-01 00:00:00-04:00,115.6323471069336,316.7294616699219,-2.8546580156215278,-0.867,1.0,1.4054887114941856
2023-05-02 00:00:00-04:00,108.78056335449219,314.56640625,-2.852588639787968,0.245,0.0,1.4336889425557198
2023-05-03 00:00:00-04:00,108.20552062988281,319.65020751953125,-2.8571772994086886,0.733,0.0,1.4336889425557198
2023-05-04 00:00:00-04:00,108.48816680908203,311.2469787597656,-2.8553216648884305,0.195,0.0,1.4336889425557198
2023-05-05 00:00:00-04:00,111.27566528320312,315.96197509765625,-2.8505026807066094,0.064,0.0,1.4336889425557198
2023-05-08 00:00:00-04:00,111.46085357666016,310.64892578125,-2.8414185955670628,-0.263,0.0,1.4336889425557198
2023-05-09 00:00:00-04:00,110.88580322265625,311.1572570800781,-2.8341971377748045,0.009,0.0,1.4336889425557198
2023-05-10 00:00:00-04:00,109.3166275024414,313.41009521484375,-2.8327476273282652,0.614,0.0,1.4336889425557198
2023-05-11 00:00:00-04:00,107.72794342041016,309.4327697753906,-2.832441690153478,0.708,0.0,1.4336889425557198
2023-05-12 00:00:00-04:00,107.62073516845703,307.0903015136719,-2.8307610397886793,0.583,0.0,1.4336889425557198
2023-05-15 00:00:00-04:00,108.51741027832031,305.50531005859375,-2.8259666146283346,0.29,0.0,1.4336889425557198
2023-05-16 00:00:00-04:00,104.90145874023438,297.4809265136719,-2.8228448435696345,0.512,0.0,1.4336889425557198
2023-05-17 00:00:00-04:00,107.99109649658203,302.7939758300781,-2.8175811278470415,0.241,0.0,1.4336889425557198
2023-05-18 00:00:00-04:00,109.18016815185547,305.4554748535156,-2.8119782820949264,0.221,0.0,1.4336889425557198
2023-05-19 00:00:00-04:00,111.68502044677734,300.451416015625,-2.797717616961246,-0.69,0.0,1.4336889425557198
2023-05-22 00:00:00-04:00,110.67138671875,301.1890563964844,-2.7863738602053116,-0.323,0.0,1.4336889425557198
2023-05-23 00:00:00-04:00,110.58366394042969,300.341796875,-2.775855264658585,-0.33,0.0,1.4336889425557198
2023-05-24 00:00:00-04:00,110.41797637939453,299.5244140625,-2.7660383971958167,-0.339,0.0,1.4336889425557198
2023-05-25 00:00:00-04:00,107.60124206542969,309.2035217285156,-2.7702934922380895,1.426,0.0,1.4336889425557198
2023-05-26 00:00:00-04:00,107.32833862304688,314.8255615234375,-2.7806389161505396,1.841,-1.0,1.4336889425557198
2023-05-30 00:00:00-04:00,106.05154418945312,316.5699768066406,-2.794882609457767,2.027,-1.0,1.4275154853450938
2023-05-31 00:00:00-04:00,104.57008361816406,309.4527587890625,-2.806211712398718,1.503,-1.0,1.4344177989381857
2023-06-01 00:00:00-04:00,105.40827941894531,316.6397705078125,-2.82002026425399,1.704,-1.0,1.4289130615456995
2023-06-02 00:00:00-04:00,109.08270263671875,318.6534118652344,-2.8266422394214414,0.795,-1.0,1.4433800105494534
2023-06-05 00:00:00-04:00,108.81954956054688,312.6026611328125,-2.8278290852985455,0.26,-1.0,1.4521432501528233
2023-06-06 00:00:00-04:00,109.95014190673828,306.9434814453125,-2.8215373585272063,-0.489,0.0,1.4653721822634602
2023-06-07 00:00:00-04:00,113.30293273925781,315.4971618652344,-2.814235562711044,-0.464,0.0,1.4653721822634602
2023-06-08 00:00:00-04:00,113.20547485351562,316.2756652832031,-2.808264546521612,-0.269,0.0,1.4653721822634602
2023-06-09 00:00:00-04:00,113.30293273925781,305.6060485839844,-2.794701571406263,-1.107,0.0,1.4653721822634602
2023-06-12 00:00:00-04:00,111.03199768066406,305.55615234375,-2.786202584090055,-0.367,0.0,1.4653721822634602
2023-06-13 00:00:00-04:00,109.86241912841797,311.5047912597656,-2.7859475100985747,0.546,0.0,1.4653721822634602
2023-06-14 00:00:00-04:00,107.86438751220703,320.10833740234375,-2.797371652812811,1.767,-1.0,1.4653721822634602
2023-06-15 00:00:00-04:00,108.86827850341797,327.7437438964844,-2.8128615608020513,1.936,-1.0,1.4604180594923584
2023-06-16 00:00:00-04:00,110.53494262695312,324.8392639160156,-2.821790295137786,1.027,-1.0,1.4738920612322775
2023-06-20 00:00:00-04:00,107.53301239013672,319.99853515625,-2.831981108285654,1.228,-1.0,1.4698342256856702
2023-06-21 00:00:00-04:00,108.05933380126953,326.02703857421875,-2.84494068948356,1.464,-1.0,1.4648810798703185
2023-06-22 00:00:00-04:00,105.5057373046875,330.2789306640625,-2.8659458416001544,2.191,-1.0,1.4501801875832288
2023-06-23 00:00:00-04:00,104.11199951171875,326.0070495605469,-2.8860560702715756,1.803,-1.0,1.4539651763194261
2023-06-26 00:00:00-04:00,107.21138000488281,333.9020080566406,-2.9036919645958266,1.435,-1.0,1.4585230600661414
2023-06-27 00:00:00-04:00,106.21724700927734,358.5848083496094,-2.9407074121773547,2.934,-1.0,1.4232921530277203
2023-06-28 00:00:00-04:00,108.37120819091797,369.5838317871094,-2.980555777783815,2.566,-1.0,1.4227919463129333
2023-06-29 00:00:00-04:00,110.13533020019531,375.03338623046875,-3.017532669346489,2.072,-1.0,1.4282784242288844
2023-06-30 00:00:00-04:00,111.53882598876953,369.0448303222656,-3.0431920279611724,1.164,-1.0,1.4467485086645602
2023-07-03 00:00:00-04:00,111.79222869873047,367.16839599609375,-3.063284981872535,0.811,-1.0,1.4536449103410332
2023-07-05 00:00:00-04:00,111.39261627197266,367.0286865234375,-3.0818141647012904,0.706,-1.0,1.4550240026369219
2023-07-06 00:00:00-04:00,109.40433502197266,365.36187744140625,-3.1019763784708454,0.799,-1.0,1.451824386161153
2023-07-07 00:00:00-04:00,113.25420379638672,369.2344665527344,-3.114491453654537,0.176,-1.0,1.464964932628276
2023-07-10 00:00:00-04:00,112.8351058959961,374.0353088378906,-3.1296418467918925,0.418,-1.0,1.4589187119530491
2023-07-11 00:00:00-04:00,116.56800842285156,377.18927001953125,-3.137316947182405,-0.24,0.0,1.4716032686946068
2023-07-12 00:00:00-04:00,118.62451934814453,375.0433654785156,-3.136993929224812,-0.854,0.0,1.4716032686946068
2023-07-13 00:00:00-04:00,119.46271514892578,376.620361328125,-3.1350230591323904,-0.949,0.0,1.4716032686946068
2023-07-14 00:00:00-04:00,116.70048522949219,377.0495300292969,-3.1397995661703573,-0.398,0.0,1.4716032686946068
2023-07-17 00:00:00-04:00,116.4551773071289,382.54901123046875,-3.1495342163974556,-0.034,0.0,1.4716032686946068
2023-07-18 00:00:00-04:00,120.468505859375,393.4482116699219,-3.157642592505606,-0.225,0.0,1.4716032686946068
2023-07-19 00:00:00-04:00,120.14469146728516,394.4462890625,-3.1663006722706792,-0.141,0.0,1.4716032686946068
2023-07-20 00:00:00-04:00,121.17500305175781,397.6002502441406,-3.1741361286889402,-0.211,0.0,1.4716032686946068
2023-07-21 00:00:00-04:00,122.27400970458984,393.7376403808594,-3.175808732578799,-0.726,0.0,1.4716032686946068
2023-07-24 00:00:00-04:00,123.78514099121094,388.7172546386719,-3.169573545743787,-1.316,0.0,1.4716032686946068
2023-07-25 00:00:00-04:00,126.0910873413086,394.615966796875,-3.162097644686203,-1.305,0.0,1.4716032686946068
2023-07-26 00:00:00-04:00,126.89572143554688,419.94757080078125,-3.1714938890588673,0.149,0.0,1.4716032686946068
2023-07-27 00:00:00-04:00,126.34620666503906,411.3440246582031,-3.176830892296257,-0.423,0.0,1.4716032686946068
2023-07-28 00:00:00-04:00,128.2498321533203,426.7745056152344,-3.1878771509109476,0.116,0.0,1.4716032686946068
2023-07-31 00:00:00-04:00,130.0455322265625,418.68994140625,-3.188728213950612,-1.006,0.0,1.4716032686946068
2023-08-01 00:00:00-04:00,129.2801513671875,411.84307861328125,-3.1854187353539536,-1.346,0.0,1.4716032686946068
2023-08-02 00:00:00-04:00,127.60221099853516,407.8007507324219,-3.182922017959812,-1.197,0.0,1.4716032686946068
2023-08-03 00:00:00-04:00,129.22128295898438,412.25225830078125,-3.1802499309131567,-1.16,0.0,1.4716032686946068
2023-08-04 00:00:00-04:00,127.3667221069336,406.33355712890625,-3.1777939564933733,-1.075,0.0,1.4716032686946068
2023-08-07 00:00:00-04:00,125.23738861083984,408.57928466796875,-3.1817915230419604,-0.421,0.0,1.4716032686946068
2023-08-08 00:00:00-04:00,125.99295806884766,408.3197937011719,-3.18421664978034,-0.624,0.0,1.4716032686946068
2023-08-09 00:00:00-04:00,128.3577880859375,400.6744079589844,-3.1758588669886207,-1.568,1.0,1.4716032686946068
2023-08-10 00:00:00-04:00,128.59329223632812,405.17578125,-3.1698156300282045,-1.167,1.0,1.4771773400122832
2023-08-11 00:00:00-04:00,129.8492889404297,409.99658203125,-3.165112974603745,-1.001,1.0,1.4789437067339393
2023-08-14 00:00:00-04:00,129.0152130126953,415.1966552734375,-3.1663002854952738,-0.419,1.0,1.4882758171815014
2023-08-15 00:00:00-04:00,126.71907806396484,408.8587646484375,-3.168561839660077,-0.32,1.0,1.4890727066009037
2023-08-16 00:00:00-04:00,126.18921661376953,406.3236083984375,-3.170144732891409,-0.356,1.0,1.4877631186701723
2023-08-17 00:00:00-04:00,127.29801940917969,393.41827392578125,-3.16037582316038,-1.792,1.0,1.4686902197838938
2023-08-18 00:00:00-04:00,128.18116760253906,392.73956298828125,-3.1480667091102026,-1.897,1.0,1.4663141256031642
2023-08-21 00:00:00-04:00,127.92603302001953,402.3412170410156,-3.1436572058578696,-0.713,1.0,1.4799486420185193
2023-08-22 00:00:00-04:00,126.81721496582031,404.22760009765625,-3.1439937871942556,-0.08,1.0,1.486586051677942
2023-08-23 00:00:00-04:00,126.47377014160156,411.8630065917969,-3.1506362278850326,0.935,0.0,1.496304368328353
2023-08-24 00:00:00-04:00,123.32394409179688,407.9205627441406,-3.16135517296177,1.494,0.0,1.496304368328353
2023-08-25 00:00:00-04:00,124.69770812988281,408.2598876953125,-3.168845070570357,0.955,0.0,1.496304368328353
2023-08-28 00:00:00-04:00,125.03133392333984,415.5959167480469,-3.1796717029174006,1.517,-1.0,1.496304368328353
2023-08-29 00:00:00-04:00,125.4532699584961,426.9841003417969,-3.1967133366444394,2.226,-1.0,1.4867531311163122
2023-08-30 00:00:00-04:00,125.37477111816406,429.48931884765625,-3.214752273310522,2.059,-1.0,1.4861591292194125
2023-08-31 00:00:00-04:00,126.20883178710938,426.554931640625,-3.2275280788339007,1.229,-1.0,1.4948269874417255
2023-09-01 00:00:00-04:00,128.5245819091797,435.0387268066406,-3.2393893196436667,1.155,-1.0,1.495431669795334
2023-09-05 00:00:00-04:00,130.88941955566406,423.0206604003906,-3.2367930840504857,-0.808,0.0,1.5182724318502188
2023-09-06 00:00:00-04:00,130.62448120117188,423.4402160644531,-3.233974236302256,-0.6,0.0,1.5182724318502188
2023-09-07 00:00:00-04:00,129.0839080810547,432.3214416503906,-3.240724614595358,0.741,0.0,1.5182724318502188
2023-09-08 00:00:00-04:00,130.2417755126953,420.83282470703125,-3.2374967700654556,-0.765,0.0,1.5182724318502188
2023-09-11 00:00:00-04:00,127.72977447509766,425.61810302734375,-3.242332074794697,0.456,0.0,1.5182724318502188
2023-09-12 00:00:00-04:00,131.5762939453125,421.4322204589844,-3.236300137990977,-1.19,0.0,1.5182724318502188
2023-09-13 00:00:00-04:00,130.41842651367188,415.3282775878906,-3.2282568690789537,-1.248,0.0,1.5182724318502188
2023-09-14 00:00:00-04:00,132.1356201171875,406.57696533203125,-3.211210265243631,-2.218,1.0,1.5182724318502188
2023-09-15 00:00:00-04:00,129.70208740234375,409.1943664550781,-3.2018412936659773,-1.048,1.0,1.5323991097858312
2023-09-18 00:00:00-04:00,129.40773010253906,409.4341125488281,-3.1947585145264825,-0.816,1.0,1.534949721547149
2023-09-19 00:00:00-04:00,126.58171081542969,405.8776550292969,-3.1921358613694935,-0.273,1.0,1.5421156168722696
2023-09-20 00:00:00-04:00,123.14732360839844,407.47607421875,-3.1985365027790036,0.802,0.0,1.556807042553046
2023-09-21 00:00:00-04:00,120.2918701171875,399.7337341308594,-3.2061841067719867,0.804,0.0,1.556807042553046
2023-09-22 00:00:00-04:00,120.32131958007812,400.2632141113281,-3.2136528517240945,0.724,0.0,1.556807042553046
2023-09-25 00:00:00-04:00,123.29451751708984,408.1054382324219,-3.219356003785203,0.497,0.0,1.556807042553046
2023-09-26 00:00:00-04:00,124.50144958496094,398.6148681640625,-3.215361681063929,-0.665,0.0,1.556807042553046
2023-09-27 00:00:00-04:00,127.37652587890625,399.4939880371094,-3.2051514582575846,-1.301,0.0,1.556807042553046
2023-09-28 00:00:00-04:00,127.04290008544922,405.6478576660156,-3.2001480507337385,-0.59,0.0,1.556807042553046
2023-09-29 00:00:00-04:00,124.38370513916016,408.7348327636719,-3.2039069751380134,0.4,0.0,1.556807042553046
2023-10-02 00:00:00-04:00,121.3418197631836,402.79071044921875,-3.210748581846451,0.651,0.0,1.556807042553046
2023-10-03 00:00:00-04:00,121.91094207763672,399.4739990234375,-3.2138229617656857,0.147,0.0,1.556807042553046
2023-10-04 00:00:00-04:00,117.12242889404297,402.7607421875,-3.229091228046034,1.573,-1.0,1.556807042553046
2023-10-05 00:00:00-04:00,116.23930358886719,402.880615234375,-3.246403214990419,1.553,-1.0,1.5555776367391605
2023-10-06 00:00:00-04:00,118.41767883300781,413.0105895996094,-3.2646980064215705,1.54,-1.0,1.5544625120526827
2023-10-09 00:00:00-04:00,124.85470581054688,421.7519226074219,-3.2731143291069533,0.35,-1.0,1.5705080112408636
2023-10-10 00:00:00-04:00,124.33464050292969,424.6889953613281,-3.283057353455052,0.617,-1.0,1.566422169316024
2023-10-11 00:00:00-04:00,124.98226928710938,425.33837890625,-3.291266664400092,0.397,-1.0,1.569413530666011
2023-10-12 00:00:00-04:00,126.54246520996094,423.6500244140625,-3.2938986844616625,-0.199,-1.0,1.5779283544475207
2023-10-13 00:00:00-04:00,131.3309783935547,404.6788330078125,-3.2719792650031643,-2.586,1.0,1.6161183243311348
2023-10-16 00:00:00-04:00,132.3331298828125,412.0115661621094,-3.252601190912466,-1.888,1.0,1.6239741805805492
2023-10-17 00:00:00-04:00,132.59971618652344,416.7268981933594,-3.237903565107801,-1.374,1.0,1.6308260019003433
2023-10-18 00:00:00-04:00,134.0412139892578,401.4620056152344,-3.211574793274728,-2.344,1.0,1.611109343672569
2023-10-19 00:00:00-04:00,134.50526428222656,396.0574035644531,-3.182063608751113,-2.279,1.0,1.6075592156122913
2023-10-20 00:00:00-04:00,131.5432586669922,392.6407775878906,-3.159039129791508,-1.567,1.0,1.6187414465563452
2023-10-23 00:00:00-04:00,129.973388671875,387.2760925292969,-3.1383862415032198,-1.344,1.0,1.6216073556250001
2023-10-24 00:00:00-04:00,128.29490661621094,385.517822265625,-3.1220950240711853,-0.95,1.0,1.6287308412799715
2023-10-25 00:00:00-04:00,128.0875701904297,370.642578125,-3.098072707411906,-1.524,1.0,1.614201281989326
2023-10-26 00:00:00-04:00,126.32023620605469,369.4237976074219,-3.0782448488766883,-1.065,1.0,1.623117924583076
2023-10-27 00:00:00-04:00,124.39491271972656,368.0950927734375,-3.0635161794696932,-0.645,1.0,1.6317007430176456
2023-10-30 00:00:00-04:00,123.86175537109375,378.7645263671875,-3.0587183623922862,0.111,1.0,1.6487237742953909
2023-10-31 00:00:00-04:00,124.65162658691406,376.2869873046875,-3.051912938735968,-0.131,1.0,1.6433779878953998
2023-11-01 00:00:00-04:00,122.64733123779297,390.26312255859375,-3.0590532768464644,0.95,0.0,1.6684839790133212
2023-11-02 00:00:00-04:00,127.02123260498047,388.4449157714844,-3.0566060441439786,0.057,0.0,1.6684839790133212
2023-11-03 00:00:00-04:00,126.53744506835938,391.9514465332031,-3.0568615452798924,0.335,0.0,1.6684839790133212
2023-11-06 00:00:00-05:00,124.81947326660156,393.6497802734375,-3.0620417532200728,0.686,0.0,1.6684839790133212
2023-11-07 00:00:00-05:00,121.08733367919922,395.96746826171875,-3.076575864746629,1.348,0.0,1.6684839790133212
2023-11-08 00:00:00-05:00,119.67543029785156,389.76361083984375,-3.0895665149257083,1.13,0.0,1.6684839790133212
2023-11-09 00:00:00-05:00,119.76429748535156,385.2181396484375,-3.0981078541500406,0.794,0.0,1.6684839790133212
2023-11-10 00:00:00-05:00,121.14656829833984,392.2411804199219,-3.107433063633435,0.873,0.0,1.6684839790133212
2023-11-13 00:00:00-05:00,121.50201416015625,390.6227722167969,-3.11420711832251,0.645,0.0,1.6684839790133212
2023-11-14 00:00:00-05:00,123.53593444824219,404.4290771484375,-3.1253105875042344,0.935,0.0,1.6684839790133212
2023-11-15 00:00:00-05:00,121.51188659667969,402.3411560058594,-3.1388105700821427,1.027,0.0,1.6684839790133212
2023-11-16 00:00:00-05:00,119.17189025878906,397.39605712890625,-3.153101726135124,1.033,0.0,1.6684839790133212
2023-11-17 00:00:00-05:00,122.43011474609375,399.50396728515625,-3.1606726042599744,0.541,0.0,1.6684839790133212
2023-11-20 00:00:00-05:00,123.64454650878906,401.8716125488281,-3.165948437645444,0.421,0.0,1.6684839790133212
2023-11-21 00:00:00-05:00,122.67694854736328,404.4790344238281,-3.17447171672371,0.697,0.0,1.6684839790133212
2023-11-22 00:00:00-05:00,121.6106185913086,403.35015869140625,-3.1841498659010092,0.784,0.0,1.6684839790133212
2023-11-24 00:00:00-05:00,121.93643951416016,403.9195861816406,-3.1928091118212847,0.734,0.0,1.6684839790133212
2023-11-27 00:00:00-05:00,121.4427719116211,398.25518798828125,-3.197819260971445,0.473,0.0,1.6684839790133212
2023-11-28 00:00:00-05:00,122.07466888427734,386.9963684082031,-3.1928652563668867,-0.223,0.0,1.6684839790133212
2023-11-29 00:00:00-05:00,121.67973327636719,383.5298156738281,-3.185842932636087,-0.272,0.0,1.6684839790133212
2023-11-30 00:00:00-05:00,121.51188659667969,388.6747131347656,-3.183148049804322,0.087,0.0,1.6684839790133212
2023-12-01 00:00:00-05:00,122.03517150878906,405.3381652832031,-3.1915001941832886,0.853,0.0,1.6684839790133212
2023-12-04 00:00:00-05:00,121.4427719116211,403.5,-3.2002498565965216,0.745,0.0,1.6684839790133212
2023-12-05 00:00:00-05:00,120.40606689453125,394.7900085449219,-3.204562440502941,0.351,0.0,1.6684839790133212
2023-12-06 00:00:00-05:00,118.23391723632812,372.8900146484375,-3.1976858878860344,-0.593,0.0,1.6684839790133212
2023-12-07 00:00:00-05:00,116.85163879394531,374.989990234375,-3.1948249520229943,-0.231,0.0,1.6684839790133212
2023-12-08 00:00:00-05:00,117.45391845703125,369.45001220703125,-3.187352068909547,-0.783,0.0,1.6684839790133212
2023-12-11 00:00:00-05:00,117.69087982177734,378.8800048828125,-3.1861166425545213,-0.182,0.0,1.6684839790133212
2023-12-12 00:00:00-05:00,116.18025207519531,382.239990234375,-3.191350619773303,0.382,0.0,1.6684839790133212
2023-12-13 00:00:00-05:00,116.9800033569336,384.05999755859375,-3.1962924372533807,0.209,0.0,1.6684839790133212
2023-12-14 00:00:00-05:00,120.5999984741211,382.5199890136719,-3.1915475408799527,-1.17,0.0,1.6684839790133212
2023-12-15 00:00:00-05:00,119.55999755859375,397.7300109863281,-3.1993168321454006,0.688,0.0,1.6684839790133212
