Date,x,y,hr,zScore,numUnits,cum rets
2022-02-09 00:00:00-05:00,101.1129150390625,219.52999877929688,-2.2642967459029486,0.608,0.0,1.0
2022-02-10 00:00:00-05:00,100.53286743164062,212.72000122070312,-2.247307355624101,0.384,0.0,1.0
2022-02-11 00:00:00-05:00,104.18260955810547,214.22999572753906,-2.2258496963207812,0.111,0.0,1.0
2022-02-14 00:00:00-05:00,101.20213317871094,213.55999755859375,-2.210655289155411,0.726,0.0,1.0
2022-02-15 00:00:00-05:00,98.96232604980469,216.3000030517578,-2.203976658650399,1.404,0.0,1.0
2022-02-16 00:00:00-05:00,99.73866271972656,212.25,-2.1942575216185247,1.097,0.0,1.0
2022-02-17 00:00:00-05:00,100.47932434082031,208.3699951171875,-2.180405696659107,0.842,0.0,1.0
2022-02-18 00:00:00-05:00,99.60482025146484,208.22000122070312,-2.1686057200468962,1.211,0.0,1.0
2022-02-22 00:00:00-05:00,97.73979949951172,206.6699981689453,-2.160105096701294,1.545,-1.0,1.0
2022-02-23 00:00:00-05:00,98.45368194580078,202.94000244140625,-2.1483943272683907,1.122,-1.0,1.0099385102612657
2022-02-24 00:00:00-05:00,98.24845886230469,209.82000732421875,-2.1432279512528107,1.744,-1.0,0.9913164810069942
2022-02-25 00:00:00-05:00,95.73198699951172,214.19000244140625,-2.1474130360513675,2.299,-1.0,0.9690118665127431
2022-02-28 00:00:00-05:00,102.54959869384766,213.72000122070312,-2.1400962124199614,1.055,-1.0,1.0021613492369574
2022-03-01 00:00:00-05:00,103.87921142578125,216.0399932861328,-2.131442956897074,1.027,-1.0,1.0013078024801847
2022-03-02 00:00:00-05:00,104.17366790771484,217.85000610351562,-2.124346605284082,1.113,-1.0,0.9969319757835244
2022-03-03 00:00:00-05:00,103.77213287353516,218.72999572753906,-2.1194942850042318,1.213,-1.0,0.9918336052372477
2022-03-04 00:00:00-05:00,105.96732330322266,217.8699951171875,-2.110902474603382,0.801,-1.0,1.0022563736776853
2022-03-07 00:00:00-05:00,107.21662139892578,214.85000610351562,-2.0980404157328025,0.415,-1.0,1.01198388489817
2022-03-08 00:00:00-05:00,105.12849426269531,206.8300018310547,-2.082853298976948,0.189,-1.0,1.0167806056676016
2022-03-09 00:00:00-05:00,101.52338409423828,209.58999633789062,-2.0769096124170265,1.127,-1.0,0.9909214893327737
2022-03-10 00:00:00-05:00,106.97567749023438,208.27999877929688,-2.0625409595289135,0.031,-1.0,1.0167929277559384
2022-03-11 00:00:00-05:00,104.1201400756836,204.16000366210938,-2.049767068914946,0.308,-1.0,1.0093699862504226
2022-03-14 00:00:00-04:00,104.26414489746094,199.42999267578125,-2.0342665410992105,-0.046,-1.0,1.0176537792129032
2022-03-15 00:00:00-04:00,102.44600677490234,204.38999938964844,-2.02662469433064,0.854,-1.0,0.9947381461808245
2022-03-16 00:00:00-04:00,101.70794677734375,206.35000610351562,-2.023364426546205,1.234,-1.0,0.9855486673152156
2022-03-17 00:00:00-04:00,106.09130096435547,212.66000366210938,-2.0188941682478014,1.009,-1.0,0.9904330153472695
2022-03-18 00:00:00-04:00,104.2281494140625,220.75,-2.024084993637717,2.337,-1.0,0.9642341822593318
2022-03-21 00:00:00-04:00,110.22262573242188,214.9199981689453,-2.015815003158257,0.068,-1.0,1.0032446211221187
2022-03-22 00:00:00-04:00,108.75550842285156,218.0800018310547,-2.0114395265196516,0.946,-1.0,0.9881512884738337
2022-03-23 00:00:00-04:00,111.20369720458984,211.8300018310547,-1.999171639145053,-0.527,0.0,1.0107477549457051
2022-03-24 00:00:00-04:00,108.91752624511719,215.11000061035156,-1.9931881709303845,0.7,0.0,1.0107477549457051
2022-03-25 00:00:00-04:00,112.0677719116211,215.75,-1.9841158398588608,-0.051,0.0,1.0107477549457051
2022-03-28 00:00:00-04:00,108.78250885009766,219.74000549316406,-1.983652280155993,1.574,-1.0,1.0107477549457051
2022-03-29 00:00:00-04:00,108.57547760009766,221.3000030517578,-1.985795638182045,1.716,-1.0,1.0067699000823795
2022-03-30 00:00:00-04:00,108.98950958251953,222.1199951171875,-1.9880660393865346,1.556,-1.0,1.0073388191772752
2022-03-31 00:00:00-04:00,107.31539154052734,222.4600067138672,-1.9929976785492929,1.881,-1.0,1.0001448125926622
2022-04-01 00:00:00-04:00,108.30547332763672,225.27000427246094,-1.998479695259749,1.827,-1.0,0.9995946077570824
2022-04-04 00:00:00-04:00,108.75550842285156,226.5500030517578,-2.003854662921613,1.665,-1.0,1.00005344606996
2022-04-05 00:00:00-04:00,106.0552978515625,223.39999389648438,-2.0105138125002813,1.752,-1.0,0.9964929993809835
2022-04-06 00:00:00-04:00,106.61334228515625,220.0,-2.0132883852985897,1.018,-1.0,1.0075773880457894
2022-04-07 00:00:00-04:00,108.56649780273438,220.6999969482422,-2.0128737448068184,0.534,-1.0,1.0148338313390093
2022-04-08 00:00:00-04:00,114.20093536376953,218.77999877929688,-2.0019294269200576,-1.141,0.0,1.0416811690234329
2022-04-11 00:00:00-04:00,109.21453094482422,213.85000610351562,-1.9945963130832134,-0.325,0.0,1.0416811690234329
2022-04-12 00:00:00-04:00,112.12178039550781,213.33999633789062,-1.9834927120669257,-1.03,0.0,1.0416811690234329
2022-04-13 00:00:00-04:00,111.88633728027344,215.3300018310547,-1.9748056096739124,-0.529,0.0,1.0416811690234329
2022-04-14 00:00:00-04:00,111.32490539550781,215.39999389648438,-1.9680567970473435,-0.217,0.0,1.0416811690234329
2022-04-18 00:00:00-04:00,111.66901397705078,213.32000732421875,-1.9600213694701036,-0.486,0.0,1.0416811690234329
2022-04-19 00:00:00-04:00,110.25638580322266,218.27999877929688,-1.9583995549265132,0.617,0.0,1.0416811690234329
2022-04-20 00:00:00-04:00,111.09852600097656,219.42999267578125,-1.9572756655199988,0.539,0.0,1.0416811690234329
2022-04-21 00:00:00-04:00,108.20085144042969,212.5500030517578,-1.955385670660363,0.385,0.0,1.0416811690234329
2022-04-22 00:00:00-04:00,105.14925384521484,205.85000610351562,-1.952999456359489,0.291,0.0,1.0416811690234329
2022-04-25 00:00:00-04:00,101.21021270751953,211.1699981689453,-1.9606938194967392,1.88,-1.0,1.0416811690234329
2022-04-26 00:00:00-04:00,101.04722595214844,205.5800018310547,-1.9649594133072048,1.037,-1.0,1.0557890141262736
2022-04-27 00:00:00-04:00,102.15196228027344,203.61000061035156,-1.9653086948048832,0.428,-1.0,1.0661172818253926
2022-04-28 00:00:00-04:00,106.64334869384766,208.4199981689453,-1.9620632174581358,-0.144,-1.0,1.0749063589166516
2022-04-29 00:00:00-04:00,105.7287826538086,178.69000244140625,-1.9370642711303714,-3.231,1.0,1.1408591181986005
2022-05-02 00:00:00-04:00,105.3212890625,175.0,-1.9092406275210076,-2.853,1.0,1.1409382517735216
2022-05-03 00:00:00-04:00,109.35086822509766,183.13999938964844,-1.8837312754412205,-2.23,1.0,1.1492543735899425
2022-05-04 00:00:00-04:00,112.98202514648438,186.47999572753906,-1.8580606542430305,-2.067,1.0,1.1477412618932015
2022-05-05 00:00:00-04:00,111.75955963134766,175.75,-1.8281978622936008,-2.275,1.0,1.1342670408272295
2022-05-06 00:00:00-04:00,119.7281494140625,172.0500030517578,-1.786721527328421,-2.903,1.0,1.0998025977056995
2022-05-09 00:00:00-04:00,106.79728698730469,164.86000061035156,-1.7597997971689943,-1.373,1.0,1.153059166098458
2022-05-10 00:00:00-04:00,108.26424407958984,167.69000244140625,-1.7369164443627265,-1.105,1.0,1.160721871945444
2022-05-11 00:00:00-04:00,109.83080291748047,166.94000244140625,-1.7137598089322652,-1.129,1.0,1.1581099210115813
2022-05-12 00:00:00-04:00,109.12449645996094,164.41000366210938,-1.6915108070247304,-0.995,1.0,1.161285757676366
2022-05-13 00:00:00-04:00,112.5383071899414,165.11000061035156,-1.6674082143628,-1.109,1.0,1.154589834365984
2022-05-16 00:00:00-04:00,114.42181396484375,164.5500030517578,-1.642435265301679,-1.1,1.0,1.1521978658070875
2022-05-17 00:00:00-04:00,115.38166046142578,168.52000427246094,-1.621428635201533,-0.72,1.0,1.1657446962664624
2022-05-18 00:00:00-04:00,110.9989242553711,162.52000427246094,-1.6035576417631823,-0.468,1.0,1.1748191028866208
2022-05-19 00:00:00-04:00,110.20206451416016,163.4499969482422,-1.5892003926340963,-0.163,1.0,1.1860128128312792
2022-05-20 00:00:00-04:00,110.51899719238281,165.55999755859375,-1.5776469055791376,0.085,1.0,1.194494841804451
2022-05-23 00:00:00-04:00,115.97025299072266,166.7100067138672,-1.5618156443475495,-0.289,1.0,1.1783544136124877
2022-05-24 00:00:00-04:00,117.03875732421875,166.6199951171875,-1.5456332922525071,-0.233,1.0,1.1787432959497834
2022-05-25 00:00:00-04:00,120.49784851074219,170.97999572753906,-1.5301897064285477,-0.123,1.0,1.1812039604820392
2022-05-26 00:00:00-04:00,121.08642578125,172.7100067138672,-1.5169171107252981,0.109,1.0,1.1880406293592625
2022-05-27 00:00:00-04:00,123.92072296142578,176.32000732421875,-1.5046558403652843,0.179,1.0,1.190328618435397
2022-05-31 00:00:00-04:00,124.02035522460938,174.5500030517578,-1.4922999747015728,0.164,1.0,1.1892510040601314
2022-06-01 00:00:00-04:00,126.709716796875,174.3699951171875,-1.47810813174599,-0.027,1.0,1.1826285039709625
2022-06-02 00:00:00-04:00,126.26603698730469,180.3300018310547,-1.4698801486374242,0.615,0.0,1.2035472948172385
2022-06-03 00:00:00-04:00,129.01881408691406,177.6999969482422,-1.4583098910947,0.198,0.0,1.2035472948172385
2022-06-06 00:00:00-04:00,127.77825927734375,177.75999450683594,-1.448864555902134,0.464,0.0,1.2035472948172385
2022-06-07 00:00:00-04:00,132.1428680419922,179.0800018310547,-1.4370422988412561,0.21,0.0,1.2035472948172385
2022-06-08 00:00:00-04:00,131.97080993652344,177.2100067138672,-1.4250393592912762,0.246,0.0,1.2035472948172385
2022-06-09 00:00:00-04:00,129.02786254882812,173.61000061035156,-1.4145986270811044,0.457,0.0,1.2035472948172385
2022-06-10 00:00:00-04:00,130.39523315429688,169.10000610351562,-1.4008400898705984,0.07,0.0,1.2035472948172385
2022-06-13 00:00:00-04:00,120.18994903564453,162.6699981689453,-1.3934401392892082,1.04,0.0,1.2035472948172385
2022-06-14 00:00:00-04:00,120.49290466308594,161.17999267578125,-1.385926499814052,1.046,0.0,1.2035472948172385
2022-06-15 00:00:00-04:00,117.0046157836914,163.8800048828125,-1.3842501431213434,1.922,-1.0,1.2035472948172385
2022-06-16 00:00:00-04:00,109.75264739990234,156.50999450683594,-1.3851373084674843,2.122,-1.0,1.1952137827590863
2022-06-17 00:00:00-04:00,102.50984954833984,157.5399932861328,-1.3940679982120683,2.762,-1.0,1.1614413412154523
2022-06-21 00:00:00-04:00,107.99931335449219,160.67999267578125,-1.4000032959719444,2.059,-1.0,1.1779659809376053
2022-06-22 00:00:00-04:00,101.68367767333984,157.77000427246094,-1.4095172760713208,2.247,-1.0,1.1614778046051382
2022-06-23 00:00:00-04:00,98.37895965576172,163.88999938964844,-1.426696737333233,2.62,-1.0,1.1316074804383556
2022-06-24 00:00:00-04:00,101.51844787597656,169.27000427246094,-1.444286549348305,2.298,-1.0,1.1344083866967132
2022-06-27 00:00:00-04:00,104.42841339111328,168.85000610351562,-1.4572910072503318,1.817,-1.0,1.1530384486966774
2022-06-28 00:00:00-04:00,108.60517883300781,164.25999450683594,-1.4608856376198653,0.917,-1.0,1.1873106482647682
2022-06-29 00:00:00-04:00,103.93270111083984,166.25999450683594,-1.469763105695952,1.429,-1.0,1.162536701632769
2022-06-30 00:00:00-04:00,101.38075256347656,167.3300018310547,-1.4822317882116176,1.587,-1.0,1.151338070529428
2022-07-01 00:00:00-04:00,102.46393585205078,170.80999755859375,-1.4956473059061892,1.519,-1.0,1.1497955770915818
2022-07-05 00:00:00-04:00,96.22175598144531,172.3000030517578,-1.516516935853531,1.996,-1.0,1.1220853791128973
2022-07-06 00:00:00-04:00,92.63246154785156,176.05999755859375,-1.5440592810212967,2.245,-1.0,1.1012388941880318
2022-07-07 00:00:00-04:00,96.45124053955078,178.6199951171875,-1.5680583874231402,1.728,-1.0,1.1183708504555196
2022-07-08 00:00:00-04:00,96.86431884765625,178.6300048828125,-1.5894873908252964,1.449,-1.0,1.126529211441537
2022-07-11 00:00:00-04:00,95.19361877441406,175.83999633789062,-1.6090215188269437,1.238,-1.0,1.1325897713043944
2022-07-12 00:00:00-04:00,91.32896423339844,174.42999267578125,-1.63085193021367,1.331,-1.0,1.123886042164136
2022-07-13 00:00:00-04:00,91.23714447021484,175.27000427246094,-1.6523743894524558,1.197,-1.0,1.126873184102179
2022-07-14 00:00:00-04:00,87.98133850097656,173.99000549316406,-1.6758152332209368,1.251,-1.0,1.1205344732971447
2022-07-15 00:00:00-04:00,89.97921752929688,177.47999572753906,-1.698151752277935,1.07,-1.0,1.1261900311520363
2022-07-18 00:00:00-04:00,92.06035614013672,175.6300048828125,-1.7144231066768851,0.583,-1.0,1.1468282435661354
2022-07-19 00:00:00-04:00,95.84341430664062,181.82000732421875,-1.728454418798864,0.434,-1.0,1.1515495631408907
2022-07-20 00:00:00-04:00,97.64707946777344,183.5800018310547,-1.7399737831799305,0.226,-1.0,1.1585722156338623
2022-07-21 00:00:00-04:00,95.78791809082031,186.75999450683594,-1.7555306692842583,0.522,-1.0,1.1446965757356038
2022-07-22 00:00:00-04:00,93.42005157470703,185.3000030517578,-1.772688964723086,0.557,-1.0,1.1415790854383785
2022-07-25 00:00:00-04:00,97.56382751464844,181.44000244140625,-1.7794932479145198,-0.364,0.0,1.1750091342796987
2022-07-26 00:00:00-04:00,95.96365356445312,177.27999877929688,-1.783252125977902,-0.539,0.0,1.1750091342796987
2022-07-27 00:00:00-04:00,100.07044982910156,181.38999938964844,-1.7836371440358925,-0.866,0.0,1.1750091342796987
2022-07-28 00:00:00-04:00,99.33048248291016,182.5399932861328,-1.7855673598744812,-0.76,0.0,1.1750091342796987
2022-07-29 00:00:00-04:00,102.873046875,189.16000366210938,-1.787785043040135,-0.835,0.0,1.1750091342796987
2022-08-01 00:00:00-04:00,99.5062255859375,193.1199951171875,-1.7980504617158752,-0.094,0.0,1.1750091342796987
2022-08-02 00:00:00-04:00,99.14549255371094,193.11000061035156,-1.8090811975704473,-0.212,0.0,1.1750091342796987
2022-08-03 00:00:00-04:00,95.83416748046875,195.5399932861328,-1.8262625378344968,0.5,0.0,1.1750091342796987
2022-08-04 00:00:00-04:00,92.32860565185547,197.1999969482422,-1.8496548009960505,1.167,0.0,1.1750091342796987
2022-08-05 00:00:00-04:00,98.97898864746094,198.6999969482422,-1.8631930934650278,-0.413,0.0,1.1750091342796987
2022-08-08 00:00:00-04:00,99.14549255371094,197.64999389648438,-1.8731417969537092,-0.705,0.0,1.1750091342796987
2022-08-09 00:00:00-04:00,100.11669158935547,196.24000549316406,-1.8791141442544201,-1.19,0.0,1.1750091342796987
2022-08-10 00:00:00-04:00,100.81040954589844,199.85000610351562,-1.8859399948122482,-0.952,0.0,1.1750091342796987
2022-08-11 00:00:00-04:00,105.0189208984375,197.27999877929688,-1.88368487704608,-2.047,1.0,1.1750091342796987
2022-08-12 00:00:00-04:00,105.89762878417969,202.08999633789062,-1.8829908170505107,-1.541,1.0,1.1830498174008042
2022-08-15 00:00:00-04:00,103.8534927368164,204.3300018310547,-1.887510574205178,-0.847,1.0,1.197086630735664
2022-08-16 00:00:00-04:00,103.97373962402344,204.0,-1.8918710937681196,-0.975,1.0,1.194565202631581
2022-08-17 00:00:00-04:00,105.15767669677734,204.77999877929688,-1.8946507171314586,-1.13,1.0,1.1902283653382462
2022-08-18 00:00:00-04:00,110.05990600585938,206.47000122070312,-1.8908776575690172,-1.79,1.0,1.1729029989465496
2022-08-19 00:00:00-04:00,109.83792877197266,201.47000122070312,-1.882965890978615,-1.986,1.0,1.1638132676658357
2022-08-22 00:00:00-04:00,109.9766616821289,196.00999450683594,-1.870725752352185,-2.193,1.0,1.1529230418988434
2022-08-23 00:00:00-04:00,112.64053344726562,194.17999267578125,-1.8537192155819153,-2.426,1.0,1.1407693310452518
2022-08-24 00:00:00-04:00,114.60142517089844,193.3800048828125,-1.8342868727132802,-2.358,1.0,1.1352985663872959
2022-08-25 00:00:00-04:00,115.82235717773438,194.61000061035156,-1.815663921731553,-2.058,1.0,1.1381323465098152
2022-08-26 00:00:00-04:00,115.22113800048828,187.50999450683594,-1.7942973290832933,-2.125,1.0,1.1291367796196268
2022-08-29 00:00:00-04:00,117.071044921875,184.0800018310547,-1.7694767036925452,-2.196,1.0,1.1193127500752689
2022-08-30 00:00:00-04:00,112.71451568603516,181.75,-1.7506862907593894,-1.538,1.0,1.1390889762137058
2022-08-31 00:00:00-04:00,112.19654083251953,182.22000122070312,-1.7353156571400374,-1.245,1.0,1.1473171787888712
2022-09-01 00:00:00-04:00,109.8009262084961,182.42999267578125,-1.724998562855833,-0.788,1.0,1.1621085360815386
2022-09-02 00:00:00-04:00,112.4000244140625,181.4499969482422,-1.7119985451473811,-1.032,1.0,1.1514039028560739
2022-09-06 00:00:00-04:00,111.28085327148438,182.2899932861328,-1.701912065610432,-0.69,1.0,1.1618388077688733
2022-09-07 00:00:00-04:00,108.38574981689453,186.52999877929688,-1.6999696105550994,0.061,1.0,1.1871305946120367
2022-09-08 00:00:00-04:00,109.43094635009766,187.3300018310547,-1.6983822739497194,0.039,1.0,1.1849785941462838
2022-09-09 00:00:00-04:00,114.10194396972656,190.55999755859375,-1.6934120086510474,-0.25,1.0,1.1742015613181191
2022-09-12 00:00:00-04:00,116.92304992675781,189.0399932861328,-1.6837635634369659,-0.643,1.0,1.1608068239537044
2022-09-13 00:00:00-04:00,113.68571472167969,178.75,-1.6708222252455536,-0.874,1.0,1.1516724231958437
2022-09-14 00:00:00-04:00,118.6672592163086,178.33999633789062,-1.6521479055055326,-1.327,1.0,1.1342650496829692
2022-09-15 00:00:00-04:00,114.76255798339844,174.6199951171875,-1.6365788122352172,-0.911,1.0,1.1467303323975067
2022-09-16 00:00:00-04:00,113.72317504882812,175.02999877929688,-1.6242818576688627,-0.596,1.0,1.1564857158849404
2022-09-19 00:00:00-04:00,112.76807403564453,176.27000427246094,-1.6154763346542798,-0.253,1.0,1.167043401134969
2022-09-20 00:00:00-04:00,112.01896667480469,174.72999572753906,-1.6075518844250698,-0.166,1.0,1.1686156545024133
2022-09-21 00:00:00-04:00,110.71739959716797,176.72000122070312,-1.6034228304849885,0.288,0.0,1.1814301672118699
2022-09-22 00:00:00-04:00,110.82038879394531,174.63999938964844,-1.5983777488548512,0.243,0.0,1.1814301672118699
2022-09-23 00:00:00-04:00,102.17762756347656,173.6999969482422,-1.6032811638444617,1.57,-1.0,1.1814301672118699
2022-09-26 00:00:00-04:00,98.48829650878906,173.3800048828125,-1.6132064825793229,2.018,-1.0,1.1675329544770623
2022-09-27 00:00:00-04:00,98.7411117553711,172.52999877929688,-1.6220872579840064,1.746,-1.0,1.1739494501854897
2022-09-28 00:00:00-04:00,104.62158203125,177.2899932861328,-1.6265563557967029,1.233,-1.0,1.1890480566709285
2022-09-29 00:00:00-04:00,105.78267669677734,176.1699981689453,-1.6278549808041616,0.887,-1.0,1.1980785799407947
2022-09-30 00:00:00-04:00,104.62158203125,173.6999969482422,-1.6282337208856652,0.821,-1.0,1.1998792914110896
2022-10-03 00:00:00-04:00,112.29987335205078,179.3000030517578,-1.6231886799127304,0.215,-1.0,1.217400783719535
2022-10-04 00:00:00-04:00,117.20650482177734,183.4600067138672,-1.615077945152263,-0.044,-1.0,1.225056573321722
2022-10-05 00:00:00-04:00,118.05860137939453,183.8699951171875,-1.606656709499422,-0.006,-1.0,1.224981655971787
2022-10-06 00:00:00-04:00,119.4163589477539,182.0800018310547,-1.596021250781892,-0.281,0.0,1.2322303967822232
2022-10-07 00:00:00-04:00,119.3414535522461,177.86000061035156,-1.5830892187075263,-0.542,0.0,1.2322303967822232
2022-10-10 00:00:00-04:00,115.83003234863281,176.99000549316406,-1.5745911221101636,0.067,0.0,1.2322303967822232
2022-10-11 00:00:00-04:00,114.8936538696289,174.88999938964844,-1.5668698392485008,0.066,0.0,1.2322303967822232
2022-10-12 00:00:00-04:00,115.60530090332031,175.67999267578125,-1.5596697062669502,0.084,0.0,1.2322303967822232
2022-10-13 00:00:00-04:00,119.23844909667969,176.85000610351562,-1.5498516610045334,-0.328,0.0,1.2322303967822232
2022-10-14 00:00:00-04:00,113.56805419921875,174.0800018310547,-1.545066719766171,0.392,0.0,1.2322303967822232
2022-10-17 00:00:00-04:00,113.87889862060547,179.5500030517578,-1.5449164153549817,0.971,0.0,1.2322303967822232
2022-10-18 00:00:00-04:00,116.7894287109375,182.88999938964844,-1.5444308985976158,0.78,0.0,1.2322303967822232
2022-10-19 00:00:00-04:00,122.516357421875,182.10000610351562,-1.5368952751305736,-0.423,0.0,1.2322303967822232
2022-10-20 00:00:00-04:00,123.94808197021484,178.6699981689453,-1.5252290812184939,-0.973,0.0,1.2322303967822232
2022-10-21 00:00:00-04:00,127.16006469726562,179.14999389648438,-1.5110743248205711,-1.308,0.0,1.2322303967822232
2022-10-24 00:00:00-04:00,126.83980560302734,182.1999969482422,-1.5005951578877241,-0.648,0.0,1.2322303967822232
2022-10-25 00:00:00-04:00,124.33425903320312,187.82000732421875,-1.4981999607284224,0.653,0.0,1.2322303967822232
2022-10-26 00:00:00-04:00,126.50070190429688,184.99000549316406,-1.4925339811628744,-0.046,0.0,1.2322303967822232
2022-10-27 00:00:00-04:00,126.5666275024414,185.7899932861328,-1.4875721517546705,0.133,0.0,1.2322303967822232
2022-10-28 00:00:00-04:00,125.9261245727539,203.3699951171875,-1.4962002357934825,2.221,-1.0,1.2322303967822232
2022-10-31 00:00:00-04:00,128.59178161621094,200.4600067138672,-1.5005285089119593,1.213,-1.0,1.2511796318258273
2022-11-01 00:00:00-04:00,128.3939666748047,196.97000122070312,-1.501797255180347,0.754,-1.0,1.259789558183183
2022-11-02 00:00:00-04:00,127.71576690673828,186.61000061035156,-1.496159267853439,-0.423,0.0,1.2826160846005876
2022-11-03 00:00:00-04:00,130.34378051757812,180.19000244140625,-1.4832270477829985,-1.555,1.0,1.2826160846005876
2022-11-04 00:00:00-04:00,133.97018432617188,176.69000244140625,-1.464753144562418,-2.183,1.0,1.2654441116152264
2022-11-07 00:00:00-05:00,137.46473693847656,177.8800048828125,-1.444931905945011,-2.117,1.0,1.2622464751067728
2022-11-08 00:00:00-05:00,139.64996337890625,180.72999572753906,-1.4268067676662275,-1.718,1.0,1.2680984720642443
2022-11-09 00:00:00-05:00,131.51174926757812,178.32000732421875,-1.4168053327322465,-0.546,1.0,1.2969400355631593
2022-11-10 00:00:00-05:00,134.0455322265625,191.1199951171875,-1.4146347420469536,0.53,0.0,1.3218938945478902
2022-11-11 00:00:00-05:00,138.5667724609375,192.38999938964844,-1.409959644696418,0.092,0.0,1.3218938945478902
2022-11-14 00:00:00-05:00,137.69076538085938,190.4499969482422,-1.405052783802312,0.151,0.0,1.3218938945478902
2022-11-15 00:00:00-05:00,138.7457275390625,195.52999877929688,-1.4029698905161583,0.686,0.0,1.3218938945478902
2022-11-16 00:00:00-05:00,135.11932373046875,197.5500030517578,-1.4059985553369447,1.518,-1.0,1.3218938945478902
2022-11-17 00:00:00-05:00,136.0989532470703,195.5500030517578,-1.406977413078227,1.062,-1.0,1.3309642643362705
2022-11-18 00:00:00-05:00,132.8304443359375,194.25,-1.4098506905100343,1.357,-1.0,1.3233184054542875
2022-11-21 00:00:00-05:00,131.73780822753906,195.50999450683594,-1.414468379384606,1.518,-1.0,1.317577590878595
2022-11-22 00:00:00-05:00,135.93881225585938,197.66000366210938,-1.4163512088587626,0.982,-1.0,1.3279521624932038
2022-11-23 00:00:00-05:00,134.36578369140625,199.30999755859375,-1.4203585369435845,1.29,-1.0,1.319392782512342
2022-11-25 00:00:00-05:00,134.35633850097656,198.8699951171875,-1.4239124850277884,1.116,-1.0,1.3217098630474038
2022-11-28 00:00:00-05:00,128.71420288085938,197.75,-1.4316337414414795,1.66,-1.0,1.306213155703242
2022-11-29 00:00:00-05:00,133.08474731445312,194.9600067138672,-1.4331596582375523,0.609,-1.0,1.3301962709020492
2022-11-30 00:00:00-05:00,133.6875762939453,199.80999755859375,-1.4366220995062808,0.944,-1.0,1.3212056144123763
2022-12-01 00:00:00-05:00,132.37831115722656,204.57000732421875,-1.4442727776106485,1.45,-1.0,1.3069845221298328
2022-12-02 00:00:00-05:00,130.8994903564453,202.10000610351562,-1.451407043567625,1.243,-1.0,1.310218619890581
2022-12-05 00:00:00-05:00,126.3499755859375,197.2899932861328,-1.459084366220036,1.269,-1.0,1.3080617598267947
2022-12-06 00:00:00-05:00,120.36875915527344,197.4499969482422,-1.4720755555902831,1.849,-1.0,1.2885141075067652
2022-12-07 00:00:00-05:00,118.83341979980469,195.99000549316406,-1.4851216555468505,1.643,-1.0,1.290528133824699
2022-12-08 00:00:00-05:00,117.33576202392578,197.39999389648438,-1.4996688203258275,1.688,-1.0,1.2853661853783216
2022-12-09 00:00:00-05:00,114.60416412353516,197.6699981689453,-1.5162727307172974,1.774,-1.0,1.2787335893705247
2022-12-12 00:00:00-05:00,116.8553695678711,199.69000244140625,-1.5309463153119793,1.406,-1.0,1.2869433414831666
2022-12-13 00:00:00-05:00,120.05792236328125,202.35000610351562,-1.542812876542659,1.034,-1.0,1.2964062565533743
2022-12-14 00:00:00-05:00,120.0293197631836,200.86000061035156,-1.5525028432453727,0.766,-1.0,1.3031441637219037
2022-12-15 00:00:00-05:00,120.69652557373047,199.6699981689453,-1.5596986833093829,0.471,-1.0,1.3111209439266118
2022-12-16 00:00:00-05:00,119.87682342529297,200.64999389648438,-1.567637397959913,0.59,-1.0,1.3077578309504734
2022-12-19 00:00:00-05:00,119.6480712890625,200.49000549316406,-1.5751518724549651,0.517,-1.0,1.3095587651988785
2022-12-20 00:00:00-05:00,120.5630874633789,202.74000549316406,-1.5825805673903748,0.488,-1.0,1.3097796211722996
2022-12-21 00:00:00-05:00,123.91814422607422,204.80999755859375,-1.5871485030915478,0.135,-1.0,1.319258659035921
2022-12-22 00:00:00-05:00,120.38199615478516,203.42999267578125,-1.5939848825218113,0.383,-1.0,1.310634163785453
2022-12-23 00:00:00-05:00,124.49004364013672,203.72000122070312,-1.5961446240614645,-0.297,0.0,1.3268534287762903
2022-12-27 00:00:00-05:00,125.89116668701172,204.07000732421875,-1.5963696040035307,-0.64,0.0,1.3268534287762903
2022-12-28 00:00:00-05:00,121.43045043945312,201.1300048828125,-1.5992765467633965,-0.344,0.0,1.3268534287762903
2022-12-29 00:00:00-05:00,122.60282897949219,205.3800048828125,-1.6038365383657942,-0.181,0.0,1.3268534287762903
2022-12-30 00:00:00-05:00,123.45111083984375,205.44000244140625,-1.6072697403635612,-0.474,0.0,1.3268534287762903
2023-01-03 00:00:00-05:00,118.6186752319336,201.9199981689453,-1.6132516319264059,0.008,0.0,1.3268534287762903
2023-01-04 00:00:00-05:00,118.53289794921875,205.55999755859375,-1.6216261294922656,0.419,0.0,1.3268534287762903
2023-01-05 00:00:00-05:00,118.55195617675781,200.0399932861328,-1.6257000761371339,-0.721,0.0,1.3268534287762903
2023-01-06 00:00:00-05:00,121.4971694946289,205.30999755859375,-1.6293603763168414,-0.712,0.0,1.3268534287762903
2023-01-09 00:00:00-05:00,121.76404571533203,208.25,-1.634415810476219,-0.399,0.0,1.3268534287762903
2023-01-10 00:00:00-05:00,121.63060760498047,208.0,-1.6391565881009578,-0.528,0.0,1.3268534287762903
2023-01-11 00:00:00-05:00,120.90621185302734,211.6699981689453,-1.6468532135582763,0.208,0.0,1.3268534287762903
2023-01-12 00:00:00-05:00,124.3375244140625,212.94000244140625,-1.6511292176022345,-0.763,0.0,1.3268534287762903
2023-01-13 00:00:00-05:00,124.17927551269531,213.91000366210938,-1.655553784109432,-0.629,0.0,1.3268534287762903
2023-01-17 00:00:00-05:00,124.75479125976562,214.47999572753906,-1.659338435782797,-0.795,0.0,1.3268534287762903
2023-01-18 00:00:00-05:00,123.53659057617188,212.32000732421875,-1.6626348324156683,-0.856,0.0,1.3268534287762903
2023-01-19 00:00:00-05:00,125.93460845947266,211.63999938964844,-1.6623661291582366,-1.711,1.0,1.3268534287762903
2023-01-20 00:00:00-05:00,127.33505249023438,214.91000366210938,-1.662430822015941,-1.467,1.0,1.3290421893252393
2023-01-23 00:00:00-05:00,128.70672607421875,215.50999450683594,-1.661365486175458,-1.622,1.0,1.325447812748803
2023-01-24 00:00:00-05:00,127.34465026855469,215.50999450683594,-1.6618432125053662,-1.163,1.0,1.330603232859816
2023-01-25 00:00:00-05:00,127.09526062011719,214.9499969482422,-1.6623237383525875,-1.132,1.0,1.3301184551821903
2023-01-26 00:00:00-05:00,130.38536071777344,217.88999938964844,-1.6610345311949495,-1.459,1.0,1.3246839148564662
2023-01-27 00:00:00-05:00,129.16717529296875,218.52000427246094,-1.661505376137384,-0.961,1.0,1.3306697008625352
2023-01-30 00:00:00-05:00,126.71158599853516,216.19000244140625,-1.6632879015679394,-0.65,1.0,1.334239472574326
2023-01-31 00:00:00-05:00,126.85546112060547,218.0500030517578,-1.6661381866380216,-0.361,1.0,1.3371716920255428
2023-02-01 00:00:00-05:00,122.09779357910156,220.72999572753906,-1.676071295387126,1.913,-1.0,1.3592560231611241
2023-02-02 00:00:00-05:00,119.6613998413086,222.3699951171875,-1.6897815497156932,2.729,-1.0,1.349639316408173
2023-02-03 00:00:00-05:00,119.53670501708984,217.72999572753906,-1.6997319983121029,1.441,-1.0,1.3629883255387272
2023-02-06 00:00:00-05:00,118.77892303466797,213.72999572753906,-1.7066813964123866,0.634,-1.0,1.3714825857078108
2023-02-07 00:00:00-05:00,122.56779479980469,215.86000061035156,-1.7098008971436676,-0.411,0.0,1.3825743773755388
2023-02-08 00:00:00-05:00,123.39270782470703,212.36000061035156,-1.7089123734500415,-1.428,0.0,1.3825743773755388
2023-02-09 00:00:00-05:00,121.97309875488281,208.08999633789062,-1.7064468300809483,-1.65,1.0,1.3825743773755388
2023-02-10 00:00:00-05:00,128.6683807373047,210.17999267578125,-1.697629333754755,-2.89,1.0,1.363441388762518
2023-02-13 00:00:00-05:00,127.84344482421875,212.8699951171875,-1.691819428635063,-1.808,1.0,1.3747034319208469
2023-02-14 00:00:00-05:00,127.6995849609375,213.82000732421875,-1.6876301504984672,-1.412,1.0,1.3787291638704597
2023-02-15 00:00:00-05:00,123.28720092773438,213.5800018310547,-1.6888914933988473,-0.175,1.0,1.3954455721687014
2023-02-16 00:00:00-05:00,120.03548431396484,207.4199981689453,-1.6901022006698796,-0.307,1.0,1.393462753826874
2023-02-17 00:00:00-05:00,113.58959197998047,204.7100067138672,-1.6968709261021089,0.983,0.0,1.4121197929265101
2023-02-21 00:00:00-05:00,114.36656951904297,203.8699951171875,-1.7021781302721455,0.484,0.0,1.4121197929265101
2023-02-22 00:00:00-05:00,112.7742691040039,203.02000427246094,-1.7082543341871135,0.691,0.0,1.4121197929265101
2023-02-23 00:00:00-05:00,114.6543197631836,202.0,-1.7109840021612246,-0.068,0.0,1.4121197929265101
2023-02-24 00:00:00-05:00,109.59928894042969,198.3800048828125,-1.7167361626220659,0.7,0.0,1.4121197929265101
2023-02-27 00:00:00-05:00,110.06929779052734,198.27999877929688,-1.7217368292563056,0.433,0.0,1.4121197929265101
2023-02-28 00:00:00-05:00,108.40985870361328,196.8300018310547,-1.7273106980933917,0.573,0.0,1.4121197929265101
2023-03-01 00:00:00-05:00,113.19631958007812,196.27000427246094,-1.7261907694221774,-0.92,0.0,1.4121197929265101
2023-03-02 00:00:00-05:00,115.87252044677734,197.0,-1.7216742638425735,-1.416,0.0,1.4121197929265101
2023-03-03 00:00:00-05:00,116.80294036865234,200.66000366210938,-1.7186618354574255,-0.947,0.0,1.4121197929265101
2023-03-06 00:00:00-05:00,115.97802734375,199.8300018310547,-1.716478947000327,-0.761,0.0,1.4121197929265101
2023-03-07 00:00:00-05:00,113.43611907958984,197.9499969482422,-1.7163506101965134,-0.315,0.0,1.4121197929265101
2023-03-08 00:00:00-05:00,113.02366638183594,198.3300018310547,-1.717232691148986,-0.133,0.0,1.4121197929265101
2023-03-09 00:00:00-05:00,110.30908966064453,196.08999633789062,-1.7199093117017088,0.21,0.0,1.4121197929265101
2023-03-10 00:00:00-05:00,107.60413360595703,191.1999969482422,-1.7224016314795139,0.111,0.0,1.4121197929265101
2023-03-13 00:00:00-04:00,104.64976501464844,191.25999450683594,-1.7284770557538076,0.836,0.0,1.4121197929265101
2023-03-14 00:00:00-04:00,104.74567413330078,192.05999755859375,-1.7349800187328472,0.789,0.0,1.4121197929265101
2023-03-15 00:00:00-04:00,98.24022674560547,191.89999389648438,-1.7493907231974688,2.173,-1.0,1.4121197929265101
2023-03-16 00:00:00-04:00,101.14445495605469,194.17999267578125,-1.761633652401748,1.438,-1.0,1.4229666649832304
2023-03-17 00:00:00-04:00,99.46967315673828,193.35000610351562,-1.7743993823347153,1.462,-1.0,1.4206669086595893
2023-03-20 00:00:00-04:00,102.08348083496094,198.17999267578125,-1.7864827643901486,1.234,-1.0,1.4234036445437102
2023-03-21 00:00:00-04:00,105.15227508544922,200.60000610351562,-1.795247193615045,0.633,-1.0,1.4336352749951986
2023-03-22 00:00:00-04:00,102.35454559326172,197.16000366210938,-1.804168192364481,0.756,-1.0,1.4318818300353757
2023-03-23 00:00:00-04:00,101.43486785888672,200.6199951171875,-1.8163896035131304,1.375,-1.0,1.4218015026956232
2023-03-24 00:00:00-04:00,102.12220764160156,201.8800048828125,-1.828104017133921,1.191,-1.0,1.4248505512070997
2023-03-27 00:00:00-04:00,104.9199447631836,203.92999267578125,-1.8364831322294506,0.601,-1.0,1.4347939872413877
2023-03-28 00:00:00-04:00,106.88513946533203,204.1199951171875,-1.841138109614536,0.012,-1.0,1.44456323587375
2023-03-29 00:00:00-04:00,109.0826644897461,205.3699951171875,-1.8427963505103717,-0.449,0.0,1.4518883507123832
2023-03-30 00:00:00-04:00,109.91520690917969,206.10000610351562,-1.8433342299878541,-0.603,0.0,1.4518883507123832
2023-03-31 00:00:00-04:00,110.97040557861328,211.3300018310547,-1.84621837791487,-0.239,0.0,1.4518883507123832
2023-04-03 00:00:00-04:00,117.53395080566406,213.33999633789062,-1.841391559679423,-1.853,1.0,1.4518883507123832
2023-04-04 00:00:00-04:00,115.80110931396484,213.85000610351562,-1.8389384146183845,-1.215,1.0,1.4612250798044977
2023-04-05 00:00:00-04:00,116.52716827392578,212.44000244140625,-1.8349101995788193,-1.52,1.0,1.455886081361014
2023-04-06 00:00:00-04:00,115.55908203125,213.05999755859375,-1.8328793066544522,-1.052,1.0,1.4620787056309386
2023-04-10 00:00:00-04:00,116.52716827392578,212.5800018310547,-1.8295677868527052,-1.275,1.0,1.457690233378433
2023-04-11 00:00:00-04:00,117.79533386230469,213.69000244140625,-1.8255129095725822,-1.309,1.0,1.4559815730008028
2023-04-12 00:00:00-04:00,118.40522003173828,212.60000610351562,-1.8201118912991068,-1.45,1.0,1.452328680290316
2023-04-13 00:00:00-04:00,118.21516418457031,216.8699951171875,-1.8184796612654597,-0.693,1.0,1.4634643913729788
2023-04-14 00:00:00-04:00,118.52706146240234,216.4600067138672,-1.8166880851916924,-0.765,1.0,1.4616931070801265
2023-04-17 00:00:00-04:00,117.71808624267578,217.1300048828125,-1.8166160114391463,-0.417,1.0,1.4666774343055946
2023-04-18 00:00:00-04:00,115.98321533203125,217.97000122070312,-1.8196695351913363,0.144,1.0,1.4751558818672665
2023-04-19 00:00:00-04:00,115.78829956054688,215.6199951171875,-1.8213316744244787,-0.206,1.0,1.4700263754831402
2023-04-20 00:00:00-04:00,115.26197814941406,215.27000427246094,-1.82314786662711,-0.185,1.0,1.470964946391184
2023-04-21 00:00:00-04:00,114.3360595703125,217.55999755859375,-1.8277442686867278,0.321,0.0,1.479059307865955
2023-04-24 00:00:00-04:00,116.15865325927734,215.63999938964844,-1.8284021665542547,-0.543,0.0,1.479059307865955
2023-04-25 00:00:00-04:00,113.71228790283203,212.8300018310547,-1.829799914254544,-0.309,0.0,1.479059307865955
2023-04-26 00:00:00-04:00,112.72789764404297,212.1999969482422,-1.8320212940273402,-0.168,0.0,1.479059307865955
2023-04-27 00:00:00-04:00,112.90332794189453,216.89999389648438,-1.8373646095784046,0.425,0.0,1.479059307865955
2023-04-28 00:00:00-04:00,116.4413070678711,221.8000030517578,-1.8414207472631152,0.084,0.0,1.479059307865955
2023-05-01 00:00:00-04:00,115.6323471069336,219.39999389648438,-1.844320995463748,-0.097,0.0,1.479059307865955
2023-05-02 00:00:00-04:00,108.78056335449219,219.61000061035156,-1.8563039870023856,1.667,-1.0,1.479059307865955
2023-05-03 00:00:00-04:00,108.20552062988281,222.5800018310547,-1.8713362194839167,2.04,-1.0,1.473387557439972
2023-05-04 00:00:00-04:00,108.48816680908203,220.77000427246094,-1.8838198896612293,1.461,-1.0,1.4820746610447033
2023-05-05 00:00:00-04:00,111.27566528320312,219.49000549316406,-1.8901994213237123,0.388,-1.0,1.4989211933310456
2023-05-08 00:00:00-04:00,111.46084594726562,219.8699951171875,-1.8954097912757701,0.345,-1.0,1.500198733575993
2023-05-09 00:00:00-04:00,110.88580322265625,217.97000122070312,-1.8994649363196965,0.16,-1.0,1.50313790489812
2023-05-10 00:00:00-04:00,109.3166275024414,222.94000244140625,-1.908983308001095,1.297,-1.0,1.487128402928406
2023-05-11 00:00:00-04:00,107.72795104980469,220.47000122070312,-1.9187803235980267,1.252,-1.0,1.488281689844031
2023-05-12 00:00:00-04:00,107.62073516845703,222.72999572753906,-1.9296941645732522,1.472,-1.0,1.4852818121939517
2023-05-15 00:00:00-04:00,108.51740264892578,226.08999633789062,-1.9410986984205254,1.481,-1.0,1.4843839724902177
2023-05-16 00:00:00-04:00,104.90145874023438,224.47000122070312,-1.9557386588827912,1.937,-1.0,1.4753921489844997
2023-05-17 00:00:00-04:00,107.99110412597656,223.9600067138672,-1.9646789168447996,0.731,-1.0,1.4926302174100488
2023-05-18 00:00:00-04:00,109.18016815185547,225.9199981689453,-1.9719662746831685,0.518,-1.0,1.495285975452667
2023-05-19 00:00:00-04:00,111.68501281738281,227.41000366210938,-1.9758580330995847,-0.084,-1.0,1.5039542544138347
2023-05-22 00:00:00-04:00,110.67139434814453,228.5399932861328,-1.9813958133721083,0.26,-1.0,1.498327305194472
2023-05-23 00:00:00-04:00,110.58366394042969,223.02000427246094,-1.9826277349302193,-0.644,0.0,1.5107234372351468
2023-05-24 00:00:00-04:00,110.41797637939453,222.0399932861328,-1.9827769728006674,-0.794,0.0,1.5107234372351468
2023-05-25 00:00:00-04:00,107.60124969482422,223.85000610351562,-1.9883743119891952,0.304,0.0,1.5107234372351468
2023-05-26 00:00:00-04:00,107.32833862304688,225.99000549316406,-1.9961778226733267,0.574,0.0,1.5107234372351468
2023-05-30 00:00:00-04:00,106.05154418945312,224.85000610351562,-2.004688112409222,0.618,0.0,1.5107234372351468
2023-05-31 00:00:00-04:00,104.57007598876953,223.32000732421875,-2.013718802749638,0.671,0.0,1.5107234372351468
2023-06-01 00:00:00-04:00,105.40827941894531,223.27999877929688,-2.0207977088016276,0.14,0.0,1.5107234372351468
2023-06-02 00:00:00-04:00,109.08271026611328,226.97000122070312,-2.0242335139306067,-0.755,0.0,1.5107234372351468
2023-06-05 00:00:00-04:00,108.8195571899414,224.9600067138672,-2.025832427359208,-1.123,0.0,1.5107234372351468
2023-06-06 00:00:00-04:00,109.95014190673828,224.36000061035156,-2.024881866790317,-1.625,1.0,1.5107234372351468
2023-06-07 00:00:00-04:00,113.30293273925781,220.8300018310547,-2.0158780691645752,-2.99,1.0,1.490024138314255
2023-06-08 00:00:00-04:00,113.20547485351562,220.50999450683594,-2.006652755579368,-2.501,1.0,1.4920810184237492
2023-06-09 00:00:00-04:00,113.30293273925781,220.97000122070312,-1.9984168830800226,-2.085,1.0,1.4947578187571422
2023-06-12 00:00:00-04:00,111.03199768066406,223.91000366210938,-1.996655962805717,-0.929,1.0,1.5119789797412235
2023-06-13 00:00:00-04:00,109.86241912841797,223.4499969482422,-1.997196972053975,-0.655,1.0,1.5160790891460763
2023-06-14 00:00:00-04:00,107.86439514160156,220.7899932861328,-1.9989627698661325,-0.482,1.0,1.5186912776167492
2023-06-15 00:00:00-04:00,108.86827850341797,224.7100067138672,-2.0021741268322306,-0.238,1.0,1.5222235391882077
2023-06-16 00:00:00-04:00,110.5349349975586,223.69000244140625,-2.0019887323022187,-0.85,1.0,1.512478267118734
2023-06-20 00:00:00-04:00,107.53301239013672,221.69000244140625,-2.004467286167604,-0.301,1.0,1.5210395140863564
2023-06-21 00:00:00-04:00,108.059326171875,220.36000061035156,-2.0052434456651778,-0.618,1.0,1.5153905525055515
2023-06-22 00:00:00-04:00,105.50574493408203,220.27000427246094,-2.009586977783679,0.129,1.0,1.5259673797288271
2023-06-23 00:00:00-04:00,104.11199188232422,221.3300018310547,-2.01695489314449,0.662,0.0,1.5331402049717686
2023-06-26 00:00:00-04:00,107.21138000488281,219.4499969482422,-2.017889142573046,-0.65,0.0,1.5331402049717686
2023-06-27 00:00:00-04:00,106.21724700927734,221.44000244140625,-2.021053566955123,-0.047,0.0,1.5331402049717686
2023-06-28 00:00:00-04:00,108.37120819091797,222.80999755859375,-2.021940049861178,-0.528,0.0,1.5331402049717686
2023-06-29 00:00:00-04:00,110.13533020019531,222.92999267578125,-2.019852172936641,-0.99,0.0,1.5331402049717686
2023-06-30 00:00:00-04:00,111.53882598876953,225.97000122070312,-2.017754029612864,-0.865,0.0,1.5331402049717686
2023-07-03 00:00:00-04:00,111.79222869873047,222.91000366210938,-2.0131200615991296,-1.295,0.0,1.5331402049717686
2023-07-05 00:00:00-04:00,111.39262390136719,222.4499969482422,-2.0088566765303915,-1.103,0.0,1.5331402049717686
2023-07-06 00:00:00-04:00,109.40433502197266,223.1300048828125,-2.0085487144556025,-0.246,0.0,1.5331402049717686
2023-07-07 00:00:00-04:00,113.25420379638672,222.4499969482422,-2.002347678554214,-1.584,1.0,1.5331402049717686
2023-07-10 00:00:00-04:00,112.83509826660156,225.08999633789062,-1.998647708606216,-0.811,1.0,1.5417878194082424
2023-07-11 00:00:00-04:00,116.56800842285156,213.72999572753906,-1.981394927965954,-3.182,1.0,1.5039876071954865
2023-07-12 00:00:00-04:00,118.62451934814453,215.8300018310547,-1.962738608700169,-2.697,1.0,1.5045188407869454
2023-07-13 00:00:00-04:00,119.46271514892578,216.41000366210938,-1.9448922314181512,-2.264,1.0,1.5068961427146874
2023-07-14 00:00:00-04:00,116.70048522949219,216.6300048828125,-1.9329377471960294,-1.294,1.0,1.522697271944879
2023-07-17 00:00:00-04:00,116.4551773071289,215.30999755859375,-1.922072104368641,-1.169,1.0,1.523652577701099
2023-07-18 00:00:00-04:00,120.468505859375,215.4600067138672,-1.9067388071142932,-1.743,1.0,1.5108106942444106
2023-07-19 00:00:00-04:00,120.14469146728516,215.00999450683594,-1.8924744331806542,-1.43,1.0,1.5150631533760166
2023-07-20 00:00:00-04:00,121.17500305175781,213.60000610351562,-1.877192776222062,-1.525,1.0,1.5116440229646324
2023-07-21 00:00:00-04:00,122.27400970458984,213.88999938964844,-1.8619402790960145,-1.427,1.0,1.511852217916113
2023-07-24 00:00:00-04:00,123.78514099121094,211.8800048828125,-1.8446392172432755,-1.626,1.0,1.5057597576649995
2023-07-25 00:00:00-04:00,126.0910873413086,211.0500030517578,-1.8251270754213034,-1.781,1.0,1.4998136125968007
2023-07-26 00:00:00-04:00,126.89572143554688,210.83999633789062,-1.8060784110506047,-1.574,1.0,1.5014922220856457
2023-07-27 00:00:00-04:00,126.34620666503906,209.4499969482422,-1.7886234327138315,-1.313,1.0,1.5056440115009915
2023-07-28 00:00:00-04:00,128.2498321533203,208.27999877929688,-1.7697655432369055,-1.457,1.0,1.5006897654388636
2023-07-31 00:00:00-04:00,130.0455322265625,210.9499969482422,-1.7522408289619016,-1.21,1.0,1.5047256718622595
2023-08-01 00:00:00-04:00,129.2801513671875,211.39999389648438,-1.7377936638594766,-0.793,1.0,1.5131163556868443
2023-08-02 00:00:00-04:00,127.60221099853516,207.88999938964844,-1.7245938399348184,-0.64,1.0,1.5156639460387198
2023-08-03 00:00:00-04:00,129.22128295898438,208.1300048828125,-1.7109749621659343,-0.675,1.0,1.5138178552598582
2023-08-04 00:00:00-04:00,127.3667221069336,205.11000061035156,-1.698681677740723,-0.456,1.0,1.5178961444193626
2023-08-07 00:00:00-04:00,125.23738861083984,205.25,-1.6902031383274962,0.082,1.0,1.5294542676129068
2023-08-08 00:00:00-04:00,125.99295806884766,203.2100067138672,-1.6805477461194036,-0.1,1.0,1.5243920626184577
2023-08-09 00:00:00-04:00,128.3577880859375,204.61000061035156,-1.6698776913906013,-0.195,1.0,1.5215167170213713
2023-08-10 00:00:00-04:00,128.59329223632812,203.97000122070312,-1.6593748927104521,-0.106,1.0,1.5222770465667634
2023-08-11 00:00:00-04:00,129.8492889404297,205.9600067138672,-1.6497815940158014,0.112,1.0,1.5250175648254354
2023-08-14 00:00:00-04:00,129.0152130126953,208.25999450683594,-1.6436496514190195,0.756,0.0,1.5356456324357124
2023-08-15 00:00:00-04:00,126.71907806396484,206.1300048828125,-1.6395010138891368,1.156,0.0,1.5356456324357124
2023-08-16 00:00:00-04:00,126.18921661376953,204.8699951171875,-1.6356287891976244,1.238,0.0,1.5356456324357124
2023-08-17 00:00:00-04:00,127.29801940917969,201.11000061035156,-1.628332559859641,0.584,0.0,1.5356456324357124
2023-08-18 00:00:00-04:00,128.18116760253906,201.33999633789062,-1.6205428854540538,0.609,0.0,1.5356456324357124
2023-08-21 00:00:00-04:00,127.92603302001953,201.92999267578125,-1.6140742778444863,0.932,0.0,1.5356456324357124
2023-08-22 00:00:00-04:00,126.81721496582031,202.99000549316406,-1.6102199898115903,1.481,0.0,1.5356456324357124
2023-08-23 00:00:00-04:00,126.47377014160156,205.19000244140625,-1.608800460610968,2.008,-1.0,1.5356456324357124
2023-08-24 00:00:00-04:00,123.32394409179688,202.57000732421875,-1.6093833572976917,2.212,-1.0,1.5297222115221978
2023-08-25 00:00:00-04:00,124.69770812988281,205.74000549316406,-1.610752878646479,2.207,-1.0,1.527783415534459
2023-08-28 00:00:00-04:00,125.03133392333984,206.52999877929688,-1.6122511936325454,2.019,-1.0,1.5276234881836395
2023-08-29 00:00:00-04:00,125.4532699584961,207.35000610351562,-1.6137294423260529,1.851,-1.0,1.5277350327116819
2023-08-30 00:00:00-04:00,125.37477111816406,209.1199951171875,-1.6163688326455694,1.893,-1.0,1.5239325584056802
2023-08-31 00:00:00-04:00,126.20883178710938,207.7899932861328,-1.6170707493723493,1.431,-1.0,1.5306499250462038
2023-09-01 00:00:00-04:00,128.5245819091797,205.14999389648438,-1.6132033271707986,0.652,-1.0,1.5449235449964487
2023-09-05 00:00:00-04:00,130.88941955566406,206.25,-1.6074289360663607,0.369,-1.0,1.549625747315273
2023-09-06 00:00:00-04:00,130.62448120117188,205.5800018310547,-1.601841909503472,0.401,-1.0,1.5484549404024086
2023-09-07 00:00:00-04:00,129.0839080810547,207.75,-1.599895996818007,0.971,-1.0,1.5366536296567808
2023-09-08 00:00:00-04:00,130.2417755126953,206.55999755859375,-1.5964071910275326,0.597,-1.0,1.542897811498353
2023-09-11 00:00:00-04:00,127.72977447509766,202.25999450683594,-1.5928911636563552,0.573,-1.0,1.5425052378035298
2023-09-12 00:00:00-04:00,131.5762939453125,198.47999572753906,-1.5830404969071026,-0.637,0.0,1.563674347576728
2023-09-13 00:00:00-04:00,130.41842651367188,199.47000122070312,-1.5753962089529319,-0.164,0.0,1.563674347576728
2023-09-14 00:00:00-04:00,132.1356201171875,200.41000366210938,-1.5674556088899987,-0.326,0.0,1.563674347576728
2023-09-15 00:00:00-04:00,129.70208740234375,200.72000122070312,-1.5629486479634183,0.35,0.0,1.563674347576728
2023-09-18 00:00:00-04:00,129.40773010253906,199.72000122070312,-1.558779158389966,0.298,0.0,1.563674347576728
2023-09-19 00:00:00-04:00,126.58171081542969,200.39999389648438,-1.5583897934641315,1.165,0.0,1.563674347576728
2023-09-20 00:00:00-04:00,123.14732360839844,200.75,-1.562187752854529,1.979,-1.0,1.563674347576728
2023-09-21 00:00:00-04:00,120.2918701171875,200.3300018310547,-1.5687839809946786,2.35,-1.0,1.5553274749689363
2023-09-22 00:00:00-04:00,120.32131958007812,199.72000122070312,-1.574684985104672,1.961,-1.0,1.5588379029306774
2023-09-25 00:00:00-04:00,123.29451751708984,200.94000244140625,-1.5777128551387227,1.226,-1.0,1.5685358148250357
2023-09-26 00:00:00-04:00,124.50144958496094,200.2899932861328,-1.5784970367571458,0.731,-1.0,1.5752186066956146
2023-09-27 00:00:00-04:00,127.37652587890625,200.47000122070312,-1.5760568793792245,-0.015,-1.0,1.5853064536687178
2023-09-28 00:00:00-04:00,127.04290008544922,202.58999633789062,-1.5753241294653115,0.432,-1.0,1.578505516126699
2023-09-29 00:00:00-04:00,124.38370513916016,202.52999877929688,-1.577608610714216,1.094,-1.0,1.5688632357961296
2023-10-02 00:00:00-04:00,121.3418197631836,202.33999633789062,-1.583116484512219,1.705,-1.0,1.558872909360932
2023-10-03 00:00:00-04:00,121.91094207763672,201.30999755859375,-1.5871656427077083,1.184,-1.0,1.5650142590208675
2023-10-04 00:00:00-04:00,117.12242889404297,204.5,-1.5981485364397923,2.52,-1.0,1.5407499458306464
2023-10-05 00:00:00-04:00,116.23930358886719,205.0800018310547,-1.61032871103261,2.338,-1.0,1.5392826865832456
2023-10-06 00:00:00-04:00,118.41767883300781,207.2100067138672,-1.6207406571233058,1.8,-1.0,1.5458239772105815
2023-10-09 00:00:00-04:00,124.85470581054688,207.77000427246094,-1.6233171659509436,0.248,-1.0,1.5706612851491009
2023-10-10 00:00:00-04:00,124.33464050292969,208.2899932861328,-1.6258642177011944,0.377,-1.0,1.5681090728015445
2023-10-11 00:00:00-04:00,124.98226928710938,210.08999633789062,-1.628702461463967,0.414,-1.0,1.567160644280837
2023-10-12 00:00:00-04:00,126.54246520996094,208.92999267578125,-1.6287739473335123,-0.145,-1.0,1.5760999103133169
2023-10-13 00:00:00-04:00,131.3309783935547,207.47000122070312,-1.6222392831662753,-1.338,0.0,1.596078003324506
2023-10-16 00:00:00-04:00,132.3331298828125,211.17999267578125,-1.6171256699430783,-0.885,0.0,1.596078003324506
2023-10-17 00:00:00-04:00,132.59971618652344,214.27000427246094,-1.6144313884797996,-0.423,0.0,1.596078003324506
2023-10-18 00:00:00-04:00,134.0412139892578,213.0399932861328,-1.6098134483037427,-0.807,0.0,1.596078003324506
2023-10-19 00:00:00-04:00,134.50526428222656,211.66000366210938,-1.604031426623584,-0.956,0.0,1.596078003324506
2023-10-20 00:00:00-04:00,131.5432586669922,208.1199951171875,-1.5994942543713326,-0.697,0.0,1.596078003324506
2023-10-23 00:00:00-04:00,129.973388671875,206.4199981689453,-1.5960175771575063,-0.535,0.0,1.596078003324506
2023-10-24 00:00:00-04:00,128.29490661621094,206.8699951171875,-1.595032418994991,-0.091,0.0,1.596078003324506
2023-10-25 00:00:00-04:00,128.0875701904297,206.47000122070312,-1.5943082372332005,-0.092,0.0,1.596078003324506
2023-10-26 00:00:00-04:00,126.32023620605469,204.52999877929688,-1.5942566061225283,0.018,0.0,1.596078003324506
2023-10-27 00:00:00-04:00,124.39491271972656,192.6300048828125,-1.5883429443591504,-1.142,0.0,1.596078003324506
2023-10-30 00:00:00-04:00,123.86175537109375,198.1300048828125,-1.5866509399847,-0.252,0.0,1.596078003324506
2023-10-31 00:00:00-04:00,124.65162658691406,199.66000366210938,-1.5856652288517996,-0.234,0.0,1.596078003324506
2023-11-01 00:00:00-04:00,122.64733123779297,194.52999877929688,-1.5835054348000355,-0.554,0.0,1.596078003324506
2023-11-02 00:00:00-04:00,127.02123260498047,200.35000610351562,-1.5806702920983051,-0.689,0.0,1.596078003324506
2023-11-03 00:00:00-04:00,126.53744506835938,202.49000549316406,-1.5799790622671264,-0.219,0.0,1.596078003324506
2023-11-06 00:00:00-05:00,124.81947326660156,203.30999755859375,-1.5819318838873515,0.319,0.0,1.596078003324506
2023-11-07 00:00:00-05:00,121.08733367919922,203.86000061035156,-1.5883460335682653,1.234,0.0,1.596078003324506
2023-11-08 00:00:00-05:00,119.67543029785156,205.02000427246094,-1.5969857095397018,1.588,-1.0,1.596078003324506
2023-11-09 00:00:00-05:00,119.76429748535156,204.0399932861328,-1.6043916764648773,1.243,-1.0,1.6011485678174142
2023-11-10 00:00:00-05:00,121.14656829833984,207.25999450683594,-1.6117810771281589,1.208,-1.0,1.600882502930185
2023-11-13 00:00:00-05:00,121.50201416015625,208.1199951171875,-1.6187667311811398,1.065,-1.0,1.6022700192472978
2023-11-14 00:00:00-05:00,123.53593444824219,208.10000610351562,-1.6228620268917509,0.441,-1.0,1.611615388645816
2023-11-15 00:00:00-05:00,121.51188659667969,206.5500030517578,-1.627535969747973,0.592,-1.0,1.6087295006089617
2023-11-16 00:00:00-05:00,119.17189025878906,209.32000732421875,-1.6364234969441913,1.369,-1.0,1.5950792361882193
2023-11-17 00:00:00-05:00,122.43011474609375,210.1199951171875,-1.6418617732382224,0.595,-1.0,1.6077215005074104
2023-11-20 00:00:00-05:00,123.64454650878906,210.8800048828125,-1.6456601924411536,0.339,-1.0,1.6118328670316586
2023-11-21 00:00:00-05:00,122.67694854736328,212.60000610351562,-1.651266041099622,0.804,-1.0,1.6055110812241327
2023-11-22 00:00:00-05:00,121.6106185913086,214.16000366210938,-1.6588694155810202,1.264,-1.0,1.5997496886497253
2023-11-24 00:00:00-05:00,121.93643951416016,213.22999572753906,-1.665013722201707,0.954,-1.0,1.6050822676882048
2023-11-27 00:00:00-05:00,121.4427719116211,213.9600067138672,-1.6715805273541924,1.036,-1.0,1.6032727876364228
2023-11-28 00:00:00-05:00,122.07466888427734,213.49000549316406,-1.676582540663329,0.659,-1.0,1.608383022678789
2023-11-29 00:00:00-05:00,121.67973327636719,211.6999969482422,-1.6802333019437914,0.392,-1.0,1.612160720109768
2023-11-30 00:00:00-05:00,121.51188659667969,212.1999969482422,-1.6839915514014476,0.423,-1.0,1.6113801776548107
2023-12-01 00:00:00-05:00,122.03517150878906,217.77000427246094,-1.690697907837477,1.021,-1.0,1.6022539391390138
2023-12-04 00:00:00-05:00,121.4427719116211,218.72999572753906,-1.6984861081383908,1.133,-1.0,1.5998639572232327
2023-12-05 00:00:00-05:00,120.40606689453125,217.17999267578125,-1.7058777654493975,0.957,-1.0,1.6014711737050118
2023-12-06 00:00:00-05:00,118.23391723632812,215.97999572753906,-1.7143756346756764,1.16,-1.0,1.5978868180751988
2023-12-07 00:00:00-05:00,116.85163879394531,214.58999633789062,-1.7229921229233272,1.111,-1.0,1.5979519877955826
2023-12-08 00:00:00-05:00,117.45391845703125,212.97000122070312,-1.7290767597502434,0.435,-1.0,1.606057569365284
2023-12-11 00:00:00-05:00,117.69087982177734,213.99000549316406,-1.734853732002789,0.375,-1.0,1.6062240510628534
2023-12-12 00:00:00-05:00,116.18025207519531,216.80999755859375,-1.7439700752353666,1.204,-1.0,1.5957774338065023
2023-12-13 00:00:00-05:00,116.9800033569336,220.02000427246094,-1.7539729430061899,1.26,-1.0,1.594260196595837
2023-12-14 00:00:00-05:00,120.5999984741211,210.49000549316406,-1.7520347726847443,-1.865,1.0,1.631354010331877
2023-12-15 00:00:00-05:00,119.62999725341797,206.0500030517578,-1.7471385081741946,-2.376,1.0,1.6261625065993472
