Date,x,y,hr,zScore,numUnits,cum rets
2022-02-23 00:00:00-05:00,98.45367431640625,64.79328155517578,-0.6464048925996282,1.149,-1.0,1.008077071907571
2022-02-24 00:00:00-05:00,98.2484359741211,63.25548553466797,-0.6456799517148241,0.653,-1.0,1.018605748176038
2022-02-25 00:00:00-05:00,95.73200225830078,66.44862365722656,-0.6488094485224326,2.181,-1.0,0.9834599791362261
2022-02-28 00:00:00-05:00,102.54959869384766,65.06753540039062,-0.6474322284358702,0.26,-1.0,1.026538583906307
2022-03-01 00:00:00-05:00,103.87921142578125,62.442501068115234,-0.6427124629148784,-0.779,0.0,1.049722960603033
2022-03-02 00:00:00-05:00,104.1736831665039,62.19762420654297,-0.6376112166359055,-0.703,0.0,1.049722960603033
2022-03-03 00:00:00-05:00,103.77212524414062,59.837059020996094,-0.631197822069549,-1.161,0.0,1.049722960603033
2022-03-04 00:00:00-05:00,105.96731567382812,56.83002853393555,-0.6216217704681535,-2.127,1.0,1.049722960603033
2022-03-07 00:00:00-05:00,107.21662902832031,51.57016372680664,-0.6076345317156031,-3.0,1.0,1.0108534307796755
2022-03-08 00:00:00-05:00,105.12850952148438,50.69841384887695,-0.5946494751964868,-2.239,1.0,1.0264184529992149
2022-03-09 00:00:00-05:00,101.52338409423828,52.22642135620117,-0.585848488744786,-1.008,1.0,1.0672881613583156
2022-03-10 00:00:00-05:00,106.9756851196289,50.27723693847656,-0.5742131452294722,-1.844,1.0,1.0323860536176028
2022-03-11 00:00:00-05:00,104.12014770507812,49.08225631713867,-0.5635910433037618,-1.375,1.0,1.0467757328515956
2022-03-14 00:00:00-04:00,104.26414489746094,48.93532943725586,-0.5538155078491968,-1.125,1.0,1.054191997215829
2022-03-15 00:00:00-04:00,102.44601440429688,49.53282165527344,-0.5462450365948119,-0.571,1.0,1.0767523146618894
2022-03-16 00:00:00-04:00,101.70795440673828,51.9913444519043,-0.5418561447758118,0.173,1.0,1.1076392869303708
2022-03-17 00:00:00-04:00,106.09129333496094,52.3929328918457,-0.536665411536265,-0.169,1.0,1.0946247517961947
2022-03-18 00:00:00-04:00,104.22815704345703,53.46057891845703,-0.5334645636027964,0.366,0.0,1.1166409622398032
2022-03-21 00:00:00-04:00,110.22261047363281,53.3724250793457,-0.5281926890502651,-0.266,0.0,1.1166409622398032
2022-03-22 00:00:00-04:00,108.75550842285156,54.57719421386719,-0.5247049743845933,0.262,0.0,1.1166409622398032
2022-03-23 00:00:00-04:00,111.20368957519531,53.676063537597656,-0.5200388223627284,-0.131,0.0,1.1166409622398032
2022-03-24 00:00:00-04:00,108.91751861572266,54.616371154785156,-0.5173170877927326,0.418,0.0,1.1166409622398032
2022-03-25 00:00:00-04:00,112.0677719116211,56.04643249511719,-0.5149214183031535,0.408,0.0,1.1166409622398032
2022-03-28 00:00:00-04:00,108.78251647949219,56.820228576660156,-0.5146971284630968,0.941,0.0,1.1166409622398032
2022-03-29 00:00:00-04:00,108.57549285888672,58.40700149536133,-0.5160678386493958,1.241,0.0,1.1166409622398032
2022-03-30 00:00:00-04:00,108.98951721191406,58.49515914916992,-0.5174150029406238,1.145,0.0,1.1166409622398032
2022-03-31 00:00:00-04:00,107.31538391113281,58.68125915527344,-0.5194591380846832,1.281,0.0,1.1166409622398032
2022-04-01 00:00:00-04:00,108.30546569824219,59.944801330566406,-0.5219939687768568,1.311,0.0,1.1166409622398032
2022-04-04 00:00:00-04:00,108.75550842285156,59.44525909423828,-0.5238045031715455,1.075,0.0,1.1166409622398032
2022-04-05 00:00:00-04:00,106.0552978515625,59.053470611572266,-0.5261671716579869,1.212,0.0,1.1166409622398032
2022-04-06 00:00:00-04:00,106.61334228515625,59.20038604736328,-0.5282894638624612,1.117,0.0,1.1166409622398032
2022-04-07 00:00:00-04:00,108.56649780273438,63.92152786254883,-0.5330537934249674,1.658,-1.0,1.1166409622398032
2022-04-08 00:00:00-04:00,114.200927734375,64.96958923339844,-0.5362086435649165,1.172,-1.0,1.1349895031296682
2022-04-11 00:00:00-04:00,109.21454620361328,64.607177734375,-0.5406641338734844,1.47,-1.0,1.1202329896282697
2022-04-12 00:00:00-04:00,112.12178039550781,64.9010238647461,-0.5439094450312922,1.13,-1.0,1.1332755255621314
2022-04-13 00:00:00-04:00,111.8863296508789,65.93927764892578,-0.5476163290726647,1.217,-1.0,1.1273674391616968
2022-04-14 00:00:00-04:00,111.32490539550781,67.30076599121094,-0.5523244736877975,1.402,-1.0,1.1184784310055378
2022-04-18 00:00:00-04:00,111.66900634765625,65.7825698852539,-0.5554412869616048,0.991,-1.0,1.1345674126632992
2022-04-19 00:00:00-04:00,110.25639343261719,66.67389678955078,-0.5593798541913666,1.141,-1.0,1.1248930308272105
2022-04-20 00:00:00-04:00,111.0985336303711,67.73175048828125,-0.5635237779713436,1.098,-1.0,1.1239232969125328
2022-04-21 00:00:00-04:00,108.20086669921875,67.2518081665039,-0.5682196215001247,1.137,-1.0,1.1189139812728295
2022-04-22 00:00:00-04:00,105.14925384521484,66.80123901367188,-0.5735829875988719,1.19,-1.0,1.1132539555262584
2022-04-25 00:00:00-04:00,101.21022033691406,67.72195434570312,-0.5810555292172155,1.558,-1.0,1.0940982872407585
2022-04-26 00:00:00-04:00,101.04723358154297,65.01856994628906,-0.586228698924773,0.966,-1.0,1.1192997318842994
2022-04-27 00:00:00-04:00,102.15196990966797,65.46912384033203,-0.5905963194883794,0.796,-1.0,1.1244129021383213
2022-04-28 00:00:00-04:00,106.64334869384766,66.3702621459961,-0.5931745773752483,0.353,-1.0,1.1400453388281389
2022-04-29 00:00:00-04:00,105.7287826538086,64.74430847167969,-0.5944912450670604,0.022,-1.0,1.1496274252188288
2022-05-02 00:00:00-04:00,105.32129669189453,64.51901245117188,-0.5955642112425354,-0.082,-1.0,1.150382312789315
2022-05-03 00:00:00-04:00,109.35086822509766,64.6953353881836,-0.5948018446104572,-0.743,0.0,1.1668785555747982
2022-05-04 00:00:00-04:00,112.98200225830078,64.53860473632812,-0.5921065667470536,-1.329,0.0,1.1668785555747982
2022-05-05 00:00:00-04:00,111.75955963134766,62.36094284057617,-0.5883105718867089,-1.661,1.0,1.1668785555747982
2022-05-06 00:00:00-04:00,119.72816467285156,62.085662841796875,-0.5809618955921908,-2.564,1.0,1.1358594663371804
2022-05-09 00:00:00-04:00,106.79729461669922,61.662906646728516,-0.5792708821761691,-0.705,1.0,1.1947142478628707
2022-05-10 00:00:00-04:00,108.26424407958984,61.36796188354492,-0.5774973957991743,-0.994,1.0,1.1870243733725854
2022-05-11 00:00:00-04:00,109.83079528808594,60.30616760253906,-0.5743638672306276,-1.494,1.0,1.1738763983881346
2022-05-12 00:00:00-04:00,109.12449645996094,60.40447998046875,-0.5717194807125564,-1.26,1.0,1.1803307706437163
2022-05-13 00:00:00-04:00,112.5383071899414,62.459259033203125,-0.5694353969779028,-1.157,1.0,1.1831763262188788
2022-05-16 00:00:00-04:00,114.42180633544922,62.44942855834961,-0.5665765731931462,-1.315,1.0,1.1772424733488978
2022-05-17 00:00:00-04:00,115.38165283203125,63.363746643066406,-0.5641902234469139,-1.079,1.0,1.1822699352993653
2022-05-18 00:00:00-04:00,110.9989242553711,61.348304748535156,-0.5624125355421536,-0.863,1.0,1.187558317993581
2022-05-19 00:00:00-04:00,110.20205688476562,61.36796188354492,-0.5612051712797598,-0.667,1.0,1.192435034267312
2022-05-20 00:00:00-04:00,110.51898193359375,62.10532760620117,-0.5605847233890088,-0.471,1.0,1.197497698112091
2022-05-23 00:00:00-04:00,115.97025299072266,62.90167236328125,-0.558387264245195,-0.965,1.0,1.1817939046281085
2022-05-24 00:00:00-04:00,117.03875732421875,62.655887603759766,-0.5555827422628454,-1.042,1.0,1.177766776011848
2022-05-25 00:00:00-04:00,120.49784851074219,62.55757141113281,-0.5514702682736782,-1.353,1.0,1.1659490843521554
2022-05-26 00:00:00-04:00,121.08644104003906,64.67134094238281,-0.5489293766247273,-0.768,1.0,1.1819385447872608
2022-05-27 00:00:00-04:00,123.92073059082031,66.84408569335938,-0.5472577460101207,-0.52,1.0,1.1880581465230897
2022-05-31 00:00:00-04:00,124.02031707763672,66.44100952148438,-0.545509038091261,-0.54,1.0,1.1862631507770272
2022-06-01 00:00:00-04:00,126.70972442626953,65.44801330566406,-0.542142362685884,-1.016,1.0,1.1711039108412888
2022-06-02 00:00:00-04:00,126.26600646972656,66.9620590209961,-0.5401999525002941,-0.451,1.0,1.185898986246811
2022-06-03 00:00:00-04:00,129.01882934570312,67.02104949951172,-0.5375758517528062,-0.695,1.0,1.1779099978893575
2022-06-06 00:00:00-04:00,127.77825164794922,67.8174057006836,-0.5361788187390308,-0.214,1.0,1.1899526774364044
2022-06-07 00:00:00-04:00,132.14288330078125,67.88623046875,-0.5334440508269735,-0.697,1.0,1.176149680871471
2022-06-08 00:00:00-04:00,131.9708251953125,67.1193618774414,-0.5303802485268235,-0.727,1.0,1.1741750280940038
2022-06-09 00:00:00-04:00,129.02786254882812,66.28369903564453,-0.5280864222544069,-0.382,1.0,1.181771978381276
2022-06-10 00:00:00-04:00,130.39520263671875,65.45784759521484,-0.5250134050308647,-0.698,1.0,1.1732053452216507
2022-06-13 00:00:00-04:00,120.18995666503906,64.05194854736328,-0.5248775402577741,0.83,0.0,1.2044183107695239
2022-06-14 00:00:00-04:00,120.49288940429688,63.068809509277344,-0.5242416340226737,0.541,0.0,1.2044183107695239
2022-06-15 00:00:00-04:00,117.00462341308594,64.0224609375,-0.5255453364130832,1.935,-1.0,1.2044183107695239
2022-06-16 00:00:00-04:00,109.75263977050781,62.63622283935547,-0.5286419216089815,2.789,-1.0,1.187136547002882
2022-06-17 00:00:00-04:00,102.50984954833984,64.35673522949219,-0.5356500524290545,3.804,-1.0,1.1466308977577104
2022-06-21 00:00:00-04:00,107.99932861328125,65.9592514038086,-0.5416412529877621,2.706,-1.0,1.1625800438866207
2022-06-22 00:00:00-04:00,101.68366241455078,67.0702133178711,-0.5503995644299734,3.139,-1.0,1.1329855778259614
2022-06-23 00:00:00-04:00,98.37896728515625,68.03369903564453,-0.5609429977838093,2.977,-1.0,1.1188226584978642
2022-06-24 00:00:00-04:00,101.51844024658203,70.69802856445312,-0.5716850035525204,2.546,-1.0,1.1202771821353856
2022-06-27 00:00:00-04:00,104.42840576171875,71.44520568847656,-0.5810351297595472,1.995,-1.0,1.1346035507646413
2022-06-28 00:00:00-04:00,108.60518646240234,70.50138854980469,-0.5870311646645483,1.123,-1.0,1.1645603006700722
2022-06-29 00:00:00-04:00,103.93270111083984,70.81600189208984,-0.594487612035565,1.467,-1.0,1.1473469328062997
2022-06-30 00:00:00-04:00,101.3807373046875,70.25560760498047,-0.6022994339501141,1.4,-1.0,1.1460923495803748
2022-07-01 00:00:00-04:00,102.46395111083984,70.45223236083984,-0.609256054295161,1.113,-1.0,1.1548867940157852
2022-07-05 00:00:00-04:00,96.22174072265625,72.16291046142578,-0.6198465937768151,1.784,-1.0,1.1207855005267702
2022-07-06 00:00:00-04:00,92.63248443603516,72.29071807861328,-0.6320171437571708,1.834,-1.0,1.1114210497718122
2022-07-07 00:00:00-04:00,96.45124053955078,73.51964569091797,-0.642684354303953,1.366,-1.0,1.12775564284452
2022-07-08 00:00:00-04:00,96.86431884765625,73.67695617675781,-0.6523550095469173,1.123,-1.0,1.1353901407898999
2022-07-11 00:00:00-04:00,95.19361877441406,73.3721694946289,-0.6618568090216198,1.041,-1.0,1.1362657139947263
2022-07-12 00:00:00-04:00,91.32894897460938,72.91992950439453,-0.6723839790822059,1.154,-1.0,1.1277478903512952
2022-07-13 00:00:00-04:00,91.23715209960938,71.94662475585938,-0.6816395184138071,0.823,-1.0,1.1408391690868975
2022-07-14 00:00:00-04:00,87.98133087158203,72.70362854003906,-0.6925546114195958,1.081,-1.0,1.1257535390400664
2022-07-15 00:00:00-04:00,89.97921752929688,72.35953521728516,-0.701593659645577,0.628,-1.0,1.1445083972586727
2022-07-18 00:00:00-04:00,92.06037139892578,71.91712188720703,-0.7082145840204872,0.176,-1.0,1.1628291579091914
2022-07-19 00:00:00-04:00,95.84341430664062,73.4114990234375,-0.7130562725012723,-0.134,-1.0,1.1744611523469604
2022-07-20 00:00:00-04:00,97.64706420898438,73.3525161743164,-0.7161747235502359,-0.451,0.0,1.1859738420897408
2022-07-21 00:00:00-04:00,95.78791046142578,73.903076171875,-0.7203647995952573,-0.243,0.0,1.1859738420897408
2022-07-22 00:00:00-04:00,93.42005157470703,73.68678283691406,-0.7256145422812366,-0.101,0.0,1.1859738420897408
2022-07-25 00:00:00-04:00,97.56381225585938,73.59831237792969,-0.7280493632459422,-0.784,0.0,1.1859738420897408
2022-07-26 00:00:00-04:00,95.96366119384766,73.8834228515625,-0.7311049117980197,-0.599,0.0,1.1859738420897408
2022-07-27 00:00:00-04:00,100.07044219970703,75.83988189697266,-0.7331344389214878,-0.92,0.0,1.1859738420897408
2022-07-28 00:00:00-04:00,99.33047485351562,78.79914855957031,-0.7377429974585767,-0.357,0.0,1.1859738420897408
2022-07-29 00:00:00-04:00,102.87303924560547,78.31739807128906,-0.739763067239716,-1.177,0.0,1.1859738420897408
2022-08-01 00:00:00-04:00,99.50621795654297,79.2415542602539,-0.744064543321664,-0.585,0.0,1.1859738420897408
2022-08-02 00:00:00-04:00,99.14549255371094,79.9887466430664,-0.7491540238128599,-0.51,0.0,1.1859738420897408
2022-08-03 00:00:00-04:00,95.83416748046875,80.3721694946289,-0.7563000312737758,0.014,0.0,1.1859738420897408
2022-08-04 00:00:00-04:00,92.32860565185547,79.50933074951172,-0.7646685886592907,0.263,0.0,1.1859738420897408
2022-08-05 00:00:00-04:00,98.97900390625,80.13057708740234,-0.7688806226880969,-1.189,0.0,1.1859738420897408
2022-08-08 00:00:00-04:00,99.14549255371094,78.88809204101562,-0.7710455540711885,-1.545,1.0,1.1859738420897408
2022-08-09 00:00:00-04:00,100.11668395996094,78.29644012451172,-0.7716478304009469,-1.796,1.0,1.1769685622701194
2022-08-10 00:00:00-04:00,100.81039428710938,79.52906036376953,-0.7725609016056302,-1.519,1.0,1.180813733318501
2022-08-11 00:00:00-04:00,105.01892852783203,79.19377899169922,-0.7705004267062324,-2.199,1.0,1.159764314821735
2022-08-12 00:00:00-04:00,105.89762115478516,80.53488159179688,-0.768771079816659,-1.842,1.0,1.1649957113850855
2022-08-15 00:00:00-04:00,103.85348510742188,82.0929183959961,-0.7697820887428721,-1.026,1.0,1.1836612253548164
2022-08-16 00:00:00-04:00,103.97373962402344,81.50125885009766,-0.7705113000547569,-1.152,1.0,1.1789583703749558
2022-08-17 00:00:00-04:00,105.15766143798828,81.0575180053711,-0.7700453319856575,-1.376,1.0,1.1708923569789402
2022-08-18 00:00:00-04:00,110.0599136352539,80.9293212890625,-0.7663359210615959,-2.005,1.0,1.1497460542435571
2022-08-19 00:00:00-04:00,109.83790588378906,80.8011245727539,-0.7625935479089353,-1.749,1.0,1.152498743311143
2022-08-22 00:00:00-04:00,109.9766616821289,80.13057708740234,-0.7585791481598054,-1.71,1.0,1.1504513082277392
2022-08-23 00:00:00-04:00,112.64051055908203,80.45599365234375,-0.7535704737648565,-1.849,1.0,1.1436099275514413
2022-08-24 00:00:00-04:00,114.60142517089844,81.25474548339844,-0.7483889965746391,-1.75,1.0,1.1431002266509276
2022-08-25 00:00:00-04:00,115.82234954833984,81.43223571777344,-0.743118310537999,-1.663,1.0,1.1423493524131414
2022-08-26 00:00:00-04:00,115.22114562988281,79.59808349609375,-0.7372745571555913,-1.699,1.0,1.1380098046062852
2022-08-29 00:00:00-04:00,117.071044921875,79.30225372314453,-0.7306499797760843,-1.78,1.0,1.1326460207546818
2022-08-30 00:00:00-04:00,112.71451568603516,78.671142578125,-0.7265046810832868,-1.09,1.0,1.1514504888358132
2022-08-31 00:00:00-04:00,112.19654083251953,78.42462921142578,-0.72311508016933,-0.946,1.0,1.1546474882458917
2022-09-01 00:00:00-04:00,109.80091857910156,78.41476440429688,-0.7214185044296199,-0.465,1.0,1.1667566394661428
2022-09-02 00:00:00-04:00,112.4000244140625,77.14269256591797,-0.7176715303886805,-1.057,1.0,1.1494828776403236
2022-09-06 00:00:00-04:00,111.28084564208984,76.9060287475586,-0.7144439745045096,-0.784,1.0,1.1554013247862187
2022-09-07 00:00:00-04:00,108.38575744628906,78.9965591430664,-0.7147053714288214,0.239,0.0,1.1818014611501855
2022-09-08 00:00:00-04:00,109.43094635009766,78.34574127197266,-0.7142854369855085,-0.06,0.0,1.1818014611501855
2022-09-09 00:00:00-04:00,114.10193634033203,78.3950424194336,-0.7113350937432444,-0.75,0.0,1.1818014611501855
2022-09-12 00:00:00-04:00,116.92306518554688,78.94725799560547,-0.7072685180609072,-0.944,0.0,1.1818014611501855
2022-09-13 00:00:00-04:00,113.68572235107422,76.07770538330078,-0.7030084407909452,-0.913,0.0,1.1818014611501855
2022-09-14 00:00:00-04:00,118.66725158691406,74.69717407226562,-0.6954597471413193,-1.767,1.0,1.1818014611501855
2022-09-15 00:00:00-04:00,114.7625503540039,76.54117584228516,-0.6916358079733566,-0.511,1.0,1.2138600009123575
2022-09-16 00:00:00-04:00,113.72315979003906,75.49590301513672,-0.6883151839888615,-0.464,1.0,1.214193210668483
2022-09-19 00:00:00-04:00,112.76806640625,76.94547271728516,-0.6869029725907712,0.154,1.0,1.2288702601363057
2022-09-20 00:00:00-04:00,112.01896667480469,76.48200225830078,-0.6858589697749755,0.258,0.0,1.229966308390661
2022-09-21 00:00:00-04:00,110.71739196777344,76.85672760009766,-0.6858867819001123,0.733,0.0,1.229966308390661
2022-09-22 00:00:00-04:00,110.82039642333984,76.74824523925781,-0.6858976779118381,0.896,0.0,1.229966308390661
2022-09-23 00:00:00-04:00,102.1776351928711,76.4721450805664,-0.6901478375003581,2.638,-1.0,1.229966308390661
2022-09-26 00:00:00-04:00,98.48831176757812,76.5904769897461,-0.6966027524346593,2.91,-1.0,1.2159937955066888
2022-09-27 00:00:00-04:00,98.74111938476562,76.09742736816406,-0.702370245958418,2.289,-1.0,1.2245097303768824
2022-09-28 00:00:00-04:00,104.62158203125,77.90199279785156,-0.7058662851327666,1.472,-1.0,1.2422457620883742
2022-09-29 00:00:00-04:00,105.78268432617188,76.99478149414062,-0.707500292872285,0.904,-1.0,1.2547569137325736
2022-09-30 00:00:00-04:00,104.62158203125,76.30450439453125,-0.7088876527111755,0.865,-1.0,1.2548495881385335
2022-10-03 00:00:00-04:00,112.29988098144531,75.56492614746094,-0.7053977040200683,-0.654,0.0,1.292261858256778
2022-10-04 00:00:00-04:00,117.20649719238281,77.75407409667969,-0.7006904598090863,-0.802,0.0,1.292261858256778
2022-10-05 00:00:00-04:00,118.0586166381836,81.00820922851562,-0.6983023497950724,0.006,0.0,1.292261858256778
2022-10-06 00:00:00-04:00,119.41635131835938,81.58014678955078,-0.6961247381842338,-0.041,0.0,1.292261858256778
2022-10-07 00:00:00-04:00,119.3414306640625,81.63931274414062,-0.6942624506005743,0.036,0.0,1.292261858256778
2022-10-10 00:00:00-04:00,115.83003234863281,81.77737426757812,-0.6945272124611709,0.692,0.0,1.292261858256778
2022-10-11 00:00:00-04:00,114.89363861083984,80.21932983398438,-0.6943292677721126,0.416,0.0,1.292261858256778
2022-10-12 00:00:00-04:00,115.60529327392578,81.72806549072266,-0.6948505540989525,0.636,0.0,1.292261858256778
2022-10-13 00:00:00-04:00,119.23843383789062,83.6706771850586,-0.6949739022514029,0.432,0.0,1.292261858256778
2022-10-14 00:00:00-04:00,113.56804656982422,82.8226318359375,-0.6973271142735814,1.158,0.0,1.292261858256778
2022-10-17 00:00:00-04:00,113.87889099121094,83.37486267089844,-0.6999727044294505,1.112,0.0,1.292261858256778
2022-10-18 00:00:00-04:00,116.78942108154297,84.0947036743164,-0.7014516072824674,0.638,0.0,1.292261858256778
2022-10-19 00:00:00-04:00,122.51636505126953,82.70430755615234,-0.6987076493247519,-0.835,0.0,1.292261858256778
2022-10-20 00:00:00-04:00,123.94807434082031,81.53083801269531,-0.6941923075074167,-1.243,0.0,1.292261858256778
2022-10-21 00:00:00-04:00,127.16004943847656,80.58419036865234,-0.6876362221307534,-1.808,1.0,1.292261858256778
2022-10-24 00:00:00-04:00,126.83979797363281,81.58014678955078,-0.6823881052877674,-1.252,1.0,1.30345436963347
2022-10-25 00:00:00-04:00,124.33426666259766,83.4537353515625,-0.6803375988487739,-0.203,1.0,1.3262954357369683
2022-10-26 00:00:00-04:00,126.5007095336914,82.85221862792969,-0.6773300865079711,-0.631,1.0,1.3162383124657353
2022-10-27 00:00:00-04:00,126.56663513183594,83.6706771850586,-0.6750587936574488,-0.356,1.0,1.3225139396411183
2022-10-28 00:00:00-04:00,125.92611694335938,84.28206634521484,-0.6738089698075362,-0.06,1.0,1.3296158514259326
2022-10-31 00:00:00-04:00,128.59176635742188,85.02164459228516,-0.6720370187266587,-0.309,1.0,1.324782081176233
2022-11-01 00:00:00-04:00,128.39395141601562,84.98219299316406,-0.6704472120363075,-0.302,1.0,1.326521837602069
2022-11-02 00:00:00-04:00,127.71578979492188,84.97234344482422,-0.6693327197240447,-0.15,1.0,1.3299664677304515
2022-11-03 00:00:00-04:00,130.34376525878906,83.91914367675781,-0.6664239186461779,-0.874,1.0,1.3157200807274534
2022-11-04 00:00:00-04:00,133.97018432617188,84.51248168945312,-0.6623732912975503,-1.195,1.0,1.3083277255799555
2022-11-07 00:00:00-05:00,137.46470642089844,84.12681579589844,-0.6567815202696161,-1.636,1.0,1.2972523244653558
2022-11-08 00:00:00-05:00,139.64999389648438,84.235595703125,-0.650723793631555,-1.638,1.0,1.2945082360973847
2022-11-09 00:00:00-05:00,131.51174926757812,82.32698822021484,-0.6474966185053674,-0.588,1.0,1.3172664415652764
2022-11-10 00:00:00-05:00,134.04551696777344,83.69168853759766,-0.6446381190753939,-0.515,1.0,1.3178970220036301
2022-11-11 00:00:00-05:00,138.56675720214844,80.9326171875,-0.6383085752673745,-1.817,1.0,1.2895787824272638
2022-11-14 00:00:00-05:00,137.69076538085938,79.2218017578125,-0.6315274067363243,-1.831,1.0,1.2882671829412042
2022-11-15 00:00:00-05:00,138.7457275390625,80.38871765136719,-0.6256915416234807,-1.365,1.0,1.296104347315927
2022-11-16 00:00:00-05:00,135.11932373046875,81.79296875,-0.6229021906118458,-0.056,1.0,1.3205088946897299
2022-11-17 00:00:00-05:00,136.0989532470703,81.9017562866211,-0.6203025685699289,-0.062,1.0,1.319621351447769
2022-11-18 00:00:00-05:00,132.8304443359375,83.08845520019531,-0.6200571010593371,0.963,0.0,1.3392451107739882
2022-11-21 00:00:00-05:00,131.73779296875,85.2146224975586,-0.621868970949354,1.668,-1.0,1.3392451107739882
2022-11-22 00:00:00-05:00,135.93882751464844,85.22450256347656,-0.6219973501047863,0.811,-1.0,1.354677400233718
2022-11-23 00:00:00-05:00,134.3657684326172,85.44207000732422,-0.6227502085831557,1.102,-1.0,1.3482035467450721
2022-11-25 00:00:00-05:00,134.35635375976562,85.1948471069336,-0.623332063795362,0.966,-1.0,1.3500949241088611
2022-11-28 00:00:00-05:00,128.71421813964844,84.52237701416016,-0.6257050958234996,1.659,-1.0,1.3347125275190022
2022-11-29 00:00:00-05:00,133.0847625732422,84.10704040527344,-0.6259764069851512,0.719,-1.0,1.3537437770428211
2022-11-30 00:00:00-05:00,133.68759155273438,85.93653106689453,-0.6269913470118971,1.092,-1.0,1.3459888966961433
2022-12-01 00:00:00-05:00,132.3782958984375,85.55085754394531,-0.6282643778625359,1.141,-1.0,1.3444080362354587
2022-12-02 00:00:00-05:00,130.8994903564453,86.75731658935547,-0.6308427529022543,1.641,-1.0,1.333789798884153
2022-12-05 00:00:00-05:00,126.34998321533203,86.70787048339844,-0.6351655983344682,2.17,-1.0,1.3201675421678403
2022-12-06 00:00:00-05:00,120.36875915527344,85.33328247070312,-0.64090526508922,2.39,-1.0,1.3094977870551505
2022-12-07 00:00:00-05:00,118.83341217041016,86.1046371459961,-0.6475181037447894,2.326,-1.0,1.3035515619742897
2022-12-08 00:00:00-05:00,117.33576965332031,85.54095458984375,-0.6540068871653685,2.032,-1.0,1.3057409859331077
2022-12-09 00:00:00-05:00,114.60415649414062,84.63115692138672,-0.6606206548107556,1.899,-1.0,1.305000496186989
2022-12-12 00:00:00-05:00,116.8553695678711,85.056396484375,-0.6660589362171193,1.442,-1.0,1.3154214030385547
2022-12-13 00:00:00-05:00,120.05792236328125,85.18495178222656,-0.6696162815599452,0.893,-1.0,1.3301070837105091
2022-12-14 00:00:00-05:00,120.02932739257812,86.1145248413086,-0.6733685244985249,0.939,-1.0,1.3271219033412636
2022-12-15 00:00:00-05:00,120.69652557373047,85.1948471069336,-0.6759045542020493,0.566,-1.0,1.3371656521938506
2022-12-16 00:00:00-05:00,119.87682342529297,86.02552032470703,-0.679075002274946,0.733,-1.0,1.3311652631235056
2022-12-19 00:00:00-05:00,119.6480712890625,86.14419555664062,-0.6822419005931446,0.675,-1.0,1.3317905014479081
2022-12-20 00:00:00-05:00,120.5630874633789,86.75731658935547,-0.6851464466419184,0.57,-1.0,1.333923950394339
2022-12-21 00:00:00-05:00,123.91814422607422,87.66712951660156,-0.6868264446483573,0.232,-1.0,1.3431674894145407
2022-12-22 00:00:00-05:00,120.38198852539062,87.597900390625,-0.6898790559162628,0.592,-1.0,1.3314941654018755
2022-12-23 00:00:00-05:00,124.49003601074219,88.63626098632812,-0.691567204654638,0.15,-1.0,1.342973927945409
2022-12-27 00:00:00-05:00,125.89115142822266,89.01203918457031,-0.6925687136751354,-0.05,-1.0,1.347056034214386
2022-12-28 00:00:00-05:00,121.43045043945312,87.94401550292969,-0.69481384852436,0.278,-1.0,1.3369078480314056
2022-12-29 00:00:00-05:00,122.60281372070312,87.95391845703125,-0.6964348495078865,0.013,-1.0,1.342696572917971
2022-12-30 00:00:00-05:00,123.45112609863281,88.36924743652344,-0.697737922586331,-0.102,-1.0,1.3446239082948566
2023-01-03 00:00:00-05:00,118.6186752319336,86.28263854980469,-0.6997925949084339,0.079,-1.0,1.3384720622900865
2023-01-04 00:00:00-05:00,118.53289031982422,86.51009368896484,-0.701955869771437,0.002,-1.0,1.3382890049753957
2023-01-05 00:00:00-05:00,118.55194854736328,94.96530151367188,-0.7098315616876243,2.304,-1.0,1.2963714756467282
2023-01-06 00:00:00-05:00,121.49717712402344,98.50560760498047,-0.7186238150075369,2.258,-1.0,1.294318610621635
2023-01-09 00:00:00-05:00,121.76404571533203,97.5661392211914,-0.7259745614080354,1.554,-1.0,1.3052148377122939
2023-01-10 00:00:00-05:00,121.630615234375,96.96290588378906,-0.7322111971142409,1.066,-1.0,1.3120147358503225
2023-01-11 00:00:00-05:00,120.90621948242188,96.16188049316406,-0.7376266171647311,0.713,-1.0,1.317007425419195
2023-01-12 00:00:00-05:00,124.33751678466797,95.98387908935547,-0.7406141464408432,-0.372,0.0,1.3333868562082045
2023-01-13 00:00:00-05:00,124.17926788330078,97.07169342041016,-0.7439413792959382,-0.128,0.0,1.3333868562082045
2023-01-17 00:00:00-05:00,124.75479125976562,98.88139343261719,-0.7479677740707172,0.145,0.0,1.3333868562082045
2023-01-18 00:00:00-05:00,123.5365982055664,96.0135498046875,-0.7503529870634538,-0.666,0.0,1.3333868562082045
2023-01-19 00:00:00-05:00,125.93460845947266,94.57962036132812,-0.7501344908435672,-1.8,1.0,1.3333868562082045
2023-01-20 00:00:00-05:00,127.3350830078125,95.48941802978516,-0.749589575052528,-1.748,1.0,1.3330131248340666
2023-01-23 00:00:00-05:00,128.7067413330078,95.0641860961914,-0.7480635752195223,-2.032,1.0,1.3264438067148745
2023-01-24 00:00:00-05:00,127.34465026855469,95.90477752685547,-0.7478597334011657,-1.341,1.0,1.336308164079771
2023-01-25 00:00:00-05:00,127.09526062011719,96.6761245727539,-0.7484546585045047,-1.0,1.0,1.3409079451255637
2023-01-26 00:00:00-05:00,130.3853302001953,97.65513610839844,-0.7480578200016892,-1.363,1.0,1.3335730005424222
2023-01-27 00:00:00-05:00,129.1671600341797,97.22002410888672,-0.7479291990562298,-1.146,1.0,1.3361152727553043
2023-01-30 00:00:00-05:00,126.71158599853516,97.45736694335938,-0.7492476923431551,-0.498,1.0,1.3460264593353417
2023-01-31 00:00:00-05:00,126.85546112060547,98.78250122070312,-0.7514126524380091,-0.143,1.0,1.3508831473168497
2023-02-01 00:00:00-05:00,122.09779357910156,98.49571228027344,-0.7557128690072131,0.815,0.0,1.3653675271387036
2023-02-02 00:00:00-05:00,119.66138458251953,96.2743148803711,-0.7596085245916836,0.517,0.0,1.3653675271387036
2023-02-03 00:00:00-05:00,119.53669738769531,97.30567932128906,-0.7639330070368954,0.715,0.0,1.3653675271387036
2023-02-06 00:00:00-05:00,118.77892303466797,98.31720733642578,-0.7690525087375222,1.001,0.0,1.3653675271387036
2023-02-07 00:00:00-05:00,122.56780242919922,98.23786926269531,-0.7717731481904189,-0.107,0.0,1.3653675271387036
2023-02-08 00:00:00-05:00,123.39271545410156,98.16844940185547,-0.7735509091551724,-0.4,0.0,1.3653675271387036
2023-02-09 00:00:00-05:00,121.97309875488281,97.30567932128906,-0.775251994620328,-0.375,0.0,1.3653675271387036
2023-02-10 00:00:00-05:00,128.66836547851562,98.44613647460938,-0.7740143281402361,-1.581,1.0,1.3653675271387036
2023-02-13 00:00:00-05:00,127.84344482421875,98.76347351074219,-0.7732670958682674,-1.173,1.0,1.370687651533071
2023-02-14 00:00:00-05:00,127.6995849609375,98.44613647460938,-0.7724919813400517,-1.158,1.0,1.3701441867162987
2023-02-15 00:00:00-05:00,123.28720092773438,99.27915954589844,-0.7746859996837403,0.053,1.0,1.3905307577751747
2023-02-16 00:00:00-05:00,120.03549194335938,99.18000030517578,-0.7786405481464678,0.635,0.0,1.4006281547874977
2023-02-17 00:00:00-05:00,113.58960723876953,99.6460952758789,-0.786250142886048,1.882,-1.0,1.4006281547874977
2023-02-21 00:00:00-05:00,114.36656188964844,99.4973373413086,-0.7931274248068979,1.34,-1.0,1.4087571368236047
2023-02-22 00:00:00-05:00,112.7742691040039,100.45928955078125,-0.8009835766247896,1.597,-1.0,1.4017396090464025
2023-02-23 00:00:00-05:00,114.65431213378906,99.4973373413086,-0.8066196139744146,0.712,-1.0,1.4179602349970089
2023-02-24 00:00:00-05:00,109.59928894042969,99.1502456665039,-0.8142572860303062,1.523,-1.0,1.4026023552452234
2023-02-27 00:00:00-05:00,110.06929016113281,100.19152069091797,-0.822020966624244,1.512,-1.0,1.4036301461887322
2023-02-28 00:00:00-05:00,108.40985870361328,99.80476379394531,-0.8299412723247229,1.528,-1.0,1.4030047261229162
2023-03-01 00:00:00-05:00,113.19631958007812,100.05268096923828,-0.8346163404385394,0.368,-1.0,1.4248718138697083
2023-03-02 00:00:00-05:00,115.87252044677734,101.45099639892578,-0.8379817774093468,0.044,-1.0,1.4310427877110639
2023-03-03 00:00:00-05:00,116.80294036865234,101.1336441040039,-0.8401436687205861,-0.332,0.0,1.4378153930768518
2023-03-06 00:00:00-05:00,115.97803497314453,101.1435546875,-0.8425068464801584,-0.2,0.0,1.4378153930768518
2023-03-07 00:00:00-05:00,113.43611907958984,100.13202667236328,-0.8455138118582314,0.036,0.0,1.4378153930768518
2023-03-08 00:00:00-05:00,113.0236587524414,99.10065460205078,-0.8478555511085689,-0.234,0.0,1.4378153930768518
2023-03-09 00:00:00-05:00,110.30909729003906,98.37671661376953,-0.8510901232472338,0.079,0.0,1.4378153930768518
2023-03-10 00:00:00-05:00,107.6041259765625,96.81974792480469,-0.8547206826485964,0.144,0.0,1.4378153930768518
2023-03-13 00:00:00-04:00,104.6497573852539,95.51070404052734,-0.8590262517099873,0.326,0.0,1.4378153930768518
2023-03-14 00:00:00-04:00,104.74568176269531,97.8015365600586,-0.8647334466534236,0.778,0.0,1.4378153930768518
2023-03-15 00:00:00-04:00,98.240234375,97.17675018310547,-0.8739384009256782,1.895,-1.0,1.4378153930768518
2023-03-16 00:00:00-04:00,101.14445495605469,97.4742660522461,-0.8812464625021923,0.942,-1.0,1.4537834789152948
2023-03-17 00:00:00-04:00,99.46968078613281,96.50239562988281,-0.888221562854321,0.834,-1.0,1.4548101979325707
2023-03-20 00:00:00-04:00,102.0834732055664,98.2577133178711,-0.894242009687914,0.425,-1.0,1.461040364655286
2023-03-21 00:00:00-04:00,105.15227508544922,98.82298278808594,-0.898039080643869,-0.409,0.0,1.4743816405826222
2023-03-22 00:00:00-04:00,102.35454559326172,98.88247680664062,-0.9032578560970753,0.243,0.0,1.4743816405826222
2023-03-23 00:00:00-04:00,101.43487548828125,97.96018981933594,-0.9081879369901518,0.049,0.0,1.4743816405826222
2023-03-24 00:00:00-04:00,102.12220001220703,99.3584976196289,-0.913315938431278,0.128,0.0,1.4743816405826222
2023-03-27 00:00:00-04:00,104.91993713378906,100.83612823486328,-0.9172381693202495,-0.327,0.0,1.4743816405826222
2023-03-28 00:00:00-04:00,106.8851318359375,100.83612823486328,-0.9193032965555791,-0.958,0.0,1.4743816405826222
2023-03-29 00:00:00-04:00,109.08265686035156,101.71874237060547,-0.9200938893638486,-1.316,0.0,1.4743816405826222
2023-03-30 00:00:00-04:00,109.91520690917969,102.00634002685547,-0.9202954592708465,-1.426,0.0,1.4743816405826222
2023-03-31 00:00:00-04:00,110.97040557861328,103.65254974365234,-0.920928728179043,-1.317,0.0,1.4743816405826222
2023-04-03 00:00:00-04:00,117.5339584350586,103.35505676269531,-0.9167091359660555,-2.867,1.0,1.4743816405826222
2023-04-04 00:00:00-04:00,115.80110931396484,102.72036743164062,-0.9130505425489367,-2.326,1.0,1.4809898491004323
2023-04-05 00:00:00-04:00,116.52716064453125,103.30546569824219,-0.9097379967698564,-2.045,1.0,1.482462169635096
2023-04-06 00:00:00-04:00,115.55908966064453,105.97314453125,-0.9094443220960039,-1.059,1.0,1.4994344800659702
2023-04-10 00:00:00-04:00,116.52716064453125,106.39957427978516,-0.9091784939105457,-1.104,1.0,1.497442421996921
2023-04-11 00:00:00-04:00,117.79534912109375,107.14334869384766,-0.9086344987464466,-1.124,1.0,1.4958308747414721
2023-04-12 00:00:00-04:00,118.40522003173828,107.27227020263672,-0.9077936193733261,-1.145,1.0,1.494314465369356
2023-04-13 00:00:00-04:00,118.21517181396484,108.56148529052734,-0.9080803833878595,-0.728,1.0,1.5009275790928402
2023-04-14 00:00:00-04:00,118.52706146240234,107.80779266357422,-0.9076990936438446,-0.935,1.0,1.4963233787550165
2023-04-17 00:00:00-04:00,117.71809387207031,108.56148529052734,-0.9083747266363996,-0.514,1.0,1.502859337936079
2023-04-18 00:00:00-04:00,115.98322296142578,108.73998260498047,-0.9103942840953142,-0.04,1.0,1.5099520093232943
2023-04-19 00:00:00-04:00,115.78829193115234,108.04579162597656,-0.9120049543711267,-0.22,1.0,1.5066604616767436
2023-04-20 00:00:00-04:00,115.2619857788086,109.26558685302734,-0.9146801352069338,0.194,1.0,1.5131415279759146
2023-04-21 00:00:00-04:00,114.3360595703125,109.4341812133789,-0.917988015384687,0.368,0.0,1.5161141518609553
2023-04-24 00:00:00-04:00,116.15865325927734,108.91849517822266,-0.9194796197616084,-0.314,0.0,1.5161141518609553
2023-04-25 00:00:00-04:00,113.7122802734375,108.87882232666016,-0.9222688790024937,0.243,0.0,1.5161141518609553
2023-04-26 00:00:00-04:00,112.72789764404297,109.33500671386719,-0.9259686171772373,0.504,0.0,1.5161141518609553
2023-04-27 00:00:00-04:00,112.90332794189453,110.67379760742188,-0.930327526875618,0.69,0.0,1.5161141518609553
2023-04-28 00:00:00-04:00,116.4413070678711,110.88206481933594,-0.932130086312477,-0.246,0.0,1.5161141518609553
2023-05-01 00:00:00-04:00,115.6323471069336,111.2589111328125,-0.9343304895394066,0.03,0.0,1.5161141518609553
2023-05-02 00:00:00-04:00,108.78057098388672,110.49530029296875,-0.9405388191260613,1.462,0.0,1.5161141518609553
2023-05-03 00:00:00-04:00,108.20551300048828,110.63414001464844,-0.9472096772568597,1.563,-1.0,1.5161141518609553
2023-05-04 00:00:00-04:00,108.48816680908203,110.51483154296875,-0.9531344286945228,1.279,-1.0,1.5209281611698229
2023-05-05 00:00:00-04:00,111.27566528320312,111.4394302368164,-0.9572263574337343,0.648,-1.0,1.5309650488245583
2023-05-08 00:00:00-04:00,111.46085357666016,111.509033203125,-0.9607030307227319,0.524,-1.0,1.533230374526549
2023-05-09 00:00:00-04:00,110.88581085205078,111.5289077758789,-0.9642534738767677,0.581,-1.0,1.5324126801908964
2023-05-10 00:00:00-04:00,109.31661987304688,110.97216033935547,-0.968238415191403,0.776,-1.0,1.5300109737054481
2023-05-11 00:00:00-04:00,107.72794342041016,112.40380096435547,-0.974175356557934,1.509,-1.0,1.519289617203405
2023-05-12 00:00:00-04:00,107.62073516845703,113.6167221069336,-0.9808553246452679,1.643,-1.0,1.5165591416124324
2023-05-15 00:00:00-04:00,108.51740264892578,113.22898864746094,-0.9861441287494572,1.026,-1.0,1.5249188333517523
2023-05-16 00:00:00-04:00,104.90145874023438,112.98043060302734,-0.9933633904953749,1.696,-1.0,1.5131318108599856
2023-05-17 00:00:00-04:00,107.99110412597656,112.9605484008789,-0.9979171179707684,0.582,-1.0,1.5293545177402916
2023-05-18 00:00:00-04:00,109.18017578125,113.17926788330078,-1.001070017894076,0.161,-1.0,1.5352522687863512
2023-05-19 00:00:00-04:00,111.68502044677734,113.81555938720703,-1.0023901475632817,-0.456,0.0,1.54419364382523
2023-05-22 00:00:00-04:00,110.67138671875,111.10140228271484,-1.0021098318774484,-1.084,0.0,1.54419364382523
2023-05-23 00:00:00-04:00,110.58366394042969,109.23231506347656,-1.0003286421415511,-1.672,1.0,1.54419364382523
2023-05-24 00:00:00-04:00,110.41797637939453,108.67556762695312,-0.9982309325833261,-1.779,1.0,1.5434655401957451
2023-05-25 00:00:00-04:00,107.60124206542969,108.30770874023438,-0.9981137272091813,-0.927,1.0,1.5548537447111224
2023-05-26 00:00:00-04:00,107.32833099365234,108.81475067138672,-0.9988210233148445,-0.702,1.0,1.5581105568719975
2023-05-30 00:00:00-04:00,106.0515365600586,108.64574432373047,-1.000405969956883,-0.407,1.0,1.5624795392989284
2023-05-31 00:00:00-04:00,104.57008361816406,110.55459594726562,-1.0045494084166071,0.609,0.0,1.5761976313140944
2023-06-01 00:00:00-04:00,105.40828704833984,111.41954803466797,-1.0086878276459732,0.42,0.0,1.5761976313140944
2023-06-02 00:00:00-04:00,109.08270263671875,112.61257934570312,-1.010576951413533,-0.632,0.0,1.5761976313140944
2023-06-05 00:00:00-04:00,108.8195571899414,113.80561828613281,-1.0131594037911198,-0.207,0.0,1.5761976313140944
2023-06-06 00:00:00-04:00,109.95014190673828,112.83130645751953,-1.0139909969745036,-1.026,0.0,1.5761976313140944
2023-06-07 00:00:00-04:00,113.30293273925781,111.16105651855469,-1.0106958258893441,-2.486,1.0,1.5761976313140944
2023-06-08 00:00:00-04:00,113.2054672241211,112.74182891845703,-1.0084903188065046,-1.688,1.0,1.5846986627982769
2023-06-09 00:00:00-04:00,113.30293273925781,112.9605484008789,-1.0066955669975013,-1.476,1.0,1.5861248547211817
2023-06-12 00:00:00-04:00,111.0320053100586,112.8114242553711,-1.0067173050133258,-0.783,1.0,1.5956292930167613
2023-06-13 00:00:00-04:00,109.8624267578125,114.38225555419922,-1.0090200797650528,0.009,1.0,1.606707813857589
2023-06-14 00:00:00-04:00,107.86439514160156,114.3325424194336,-1.0128823350481078,0.497,0.0,1.6136390962693405
2023-06-15 00:00:00-04:00,108.8682861328125,114.07405090332031,-1.0156456860468823,0.019,0.0,1.6136390962693405
2023-06-16 00:00:00-04:00,110.5349349975586,113.6763687133789,-1.0164730552821588,-0.661,0.0,1.6136390962693405
2023-06-20 00:00:00-04:00,107.53302001953125,112.64241027832031,-1.018538774225186,-0.092,0.0,1.6136390962693405
2023-06-21 00:00:00-04:00,108.059326171875,112.70205688476562,-1.0202193541687574,-0.256,0.0,1.6136390962693405
2023-06-22 00:00:00-04:00,105.50574493408203,114.3325424194336,-1.0249427136655938,1.013,0.0,1.6136390962693405
2023-06-23 00:00:00-04:00,104.11199951171875,114.02434539794922,-1.0305098196726772,1.204,0.0,1.6136390962693405
2023-06-26 00:00:00-04:00,107.21138000488281,113.99452209472656,-1.0332785814210779,0.032,0.0,1.6136390962693405
2023-06-27 00:00:00-04:00,106.21723937988281,113.63661193847656,-1.0360096796729696,0.17,0.0,1.6136390962693405
2023-06-28 00:00:00-04:00,108.3712158203125,112.4535140991211,-1.0359031101868852,-0.936,0.0,1.6136390962693405
2023-06-29 00:00:00-04:00,110.13532257080078,113.22898864746094,-1.034670135660019,-1.171,0.0,1.6136390962693405
2023-06-30 00:00:00-04:00,111.53882598876953,114.28282928466797,-1.0331084246668636,-1.183,0.0,1.6136390962693405
2023-07-03 00:00:00-04:00,111.79222869873047,114.45185089111328,-1.031574132628953,-1.109,0.0,1.6136390962693405
2023-07-05 00:00:00-04:00,111.39263153076172,113.63661193847656,-1.0298699855190312,-1.12,0.0,1.6136390962693405
2023-07-06 00:00:00-04:00,109.40434265136719,113.74596405029297,-1.0299294622405688,-0.304,0.0,1.6136390962693405
2023-07-07 00:00:00-04:00,113.25419616699219,111.96636199951172,-1.025834019000978,-2.15,1.0,1.6136390962693405
2023-07-10 00:00:00-04:00,112.83509826660156,111.58856201171875,-1.0216624251106816,-1.797,1.0,1.6159436400374805
2023-07-11 00:00:00-04:00,116.56800842285156,109.86860656738281,-1.013689378604675,-2.873,1.0,1.5957520875601128
2023-07-12 00:00:00-04:00,118.62451934814453,111.73768615722656,-1.0058678904460394,-2.352,1.0,1.5988345850911672
2023-07-13 00:00:00-04:00,119.46272277832031,111.37977600097656,-0.9979067817053674,-2.197,1.0,1.5977505237540237
2023-07-14 00:00:00-04:00,116.70049285888672,112.05582427978516,-0.993214750177179,-1.128,1.0,1.6152096416163242
2023-07-17 00:00:00-04:00,116.4551773071289,112.34415435791016,-0.9896950205267381,-0.849,1.0,1.61934793199918
2023-07-18 00:00:00-04:00,120.46849822998047,111.38972473144531,-0.9829927809973488,-1.74,1.0,1.6014244491959309
2023-07-19 00:00:00-04:00,120.14469146728516,111.71780395507812,-0.9770449957889745,-1.323,1.0,1.607364853316379
2023-07-20 00:00:00-04:00,121.17500305175781,112.62252044677734,-0.9716550389149488,-1.128,1.0,1.6097575299994467
2023-07-21 00:00:00-04:00,122.27400970458984,112.30438232421875,-0.9658199541954193,-1.215,1.0,1.6068386193637227
2023-07-24 00:00:00-04:00,123.78514099121094,112.03595733642578,-0.9592380158567392,-1.341,1.0,1.6028816998228974
2023-07-25 00:00:00-04:00,126.09107971191406,104.39057922363281,-0.9461240448975264,-2.774,1.0,1.566206717509569
2023-07-26 00:00:00-04:00,126.89572143554688,101.16938781738281,-0.9307631250926502,-2.718,1.0,1.5569343065337393
2023-07-27 00:00:00-04:00,126.34620666503906,101.60682678222656,-0.9173225492776885,-2.034,1.0,1.569104361735536
2023-07-28 00:00:00-04:00,128.24984741210938,101.48753356933594,-0.9040419653570609,-1.883,1.0,1.5683578577848565
2023-07-31 00:00:00-04:00,130.0455322265625,103.02852630615234,-0.8920076826436882,-1.531,1.0,1.5751268942628287
2023-08-01 00:00:00-04:00,129.28016662597656,102.57119750976562,-0.881418033427771,-1.207,1.0,1.5824906802960546
2023-08-02 00:00:00-04:00,127.60220336914062,101.81562042236328,-0.8724695929218915,-0.87,1.0,1.5912417824203762
2023-08-03 00:00:00-04:00,129.22128295898438,101.89537048339844,-0.8635888728595966,-0.847,1.0,1.590373966119903
2023-08-04 00:00:00-04:00,127.3667221069336,101.62620544433594,-0.8564561281520743,-0.457,1.0,1.6010088913825644
2023-08-07 00:00:00-04:00,125.23738861083984,102.78263092041016,-0.8521816833243548,0.129,1.0,1.6177883582937391
2023-08-08 00:00:00-04:00,125.99295043945312,100.11087799072266,-0.8462713862044756,-0.246,1.0,1.6053522841880845
2023-08-09 00:00:00-04:00,128.3577880859375,99.02423858642578,-0.8386153947839984,-0.551,1.0,1.5951657176552247
2023-08-10 00:00:00-04:00,128.59327697753906,97.6883544921875,-0.8304414695774583,-0.59,1.0,1.5928072343441833
2023-08-11 00:00:00-04:00,129.8492889404297,96.48208618164062,-0.8214299274368666,-0.749,1.0,1.587494897060851
2023-08-14 00:00:00-04:00,129.01522827148438,96.90078735351562,-0.813913327603622,-0.3,1.0,1.597764818998477
2023-08-15 00:00:00-04:00,126.71908569335938,95.69451141357422,-0.8076533616616709,0.062,1.0,1.605116087209177
2023-08-16 00:00:00-04:00,126.18921661376953,94.34867095947266,-0.8014274852176526,0.081,1.0,1.6044395406599443
2023-08-17 00:00:00-04:00,127.29802703857422,93.0028305053711,-0.7942271100815776,-0.175,1.0,1.5976500776238907
2023-08-18 00:00:00-04:00,128.18116760253906,94.45833587646484,-0.7880811661421411,0.236,0.0,1.605537948298234
2023-08-21 00:00:00-04:00,127.92603302001953,94.19913482666016,-0.7825345352600088,0.449,0.0,1.605537948298234
2023-08-22 00:00:00-04:00,126.81721496582031,95.97364807128906,-0.7793151822087148,1.264,0.0,1.605537948298234
2023-08-23 00:00:00-04:00,126.47377014160156,96.35248565673828,-0.7770235825057754,1.604,-1.0,1.605537948298234
2023-08-24 00:00:00-04:00,123.3239517211914,95.41537475585938,-0.776033986546743,1.926,-1.0,1.5969966019060564
2023-08-25 00:00:00-04:00,124.69770812988281,96.05340576171875,-0.7749551843130753,1.765,-1.0,1.5985199228503513
2023-08-28 00:00:00-04:00,125.03132629394531,96.11322784423828,-0.7738239465668257,1.623,-1.0,1.598816901308187
2023-08-29 00:00:00-04:00,125.4532699584961,96.40232849121094,-0.772758241573747,1.537,-1.0,1.5983189027677596
2023-08-30 00:00:00-04:00,125.37477111816406,97.299560546875,-0.7724399603833582,1.639,-1.0,1.5931794347035275
2023-08-31 00:00:00-04:00,126.20883178710938,97.11014556884766,-0.7716515097051571,1.416,-1.0,1.596954085937509
2023-09-01 00:00:00-04:00,128.5245819091797,96.98054504394531,-0.7695888790596807,1.046,-1.0,1.6053845320362572
2023-09-05 00:00:00-04:00,130.88941955566406,96.56183624267578,-0.7660812659731763,0.638,-1.0,1.6144254203331385
2023-09-06 00:00:00-04:00,130.62448120117188,96.43224334716797,-0.7628107881017618,0.724,-1.0,1.6118724256862933
2023-09-07 00:00:00-04:00,129.08392333984375,98.07715606689453,-0.7617541916025048,1.289,-1.0,1.5968197501621577
2023-09-08 00:00:00-04:00,130.2417755126953,98.09709930419922,-0.7604122863821492,1.096,-1.0,1.600306117242293
2023-09-11 00:00:00-04:00,127.72978210449219,98.61549377441406,-0.7607947145166037,1.478,-1.0,1.5881518817668212
2023-09-12 00:00:00-04:00,131.5762939453125,97.31950378417969,-0.7584679656286214,0.666,-1.0,1.6080196383400138
2023-09-13 00:00:00-04:00,130.4184112548828,98.78497314453125,-0.7576757336366672,1.14,-1.0,1.5956359848693398
2023-09-14 00:00:00-04:00,132.13560485839844,99.50275421142578,-0.7567021904361856,1.0,-1.0,1.597915071588094
2023-09-15 00:00:00-04:00,129.70208740234375,99.28343200683594,-0.7568815088547581,1.334,-1.0,1.5898175926579796
2023-09-18 00:00:00-04:00,129.40773010253906,98.79493713378906,-0.7569705330860601,1.227,-1.0,1.5912265776073156
2023-09-19 00:00:00-04:00,126.58171844482422,96.94066619873047,-0.7572341454631828,1.24,-1.0,1.5899217141286592
2023-09-20 00:00:00-04:00,123.14733123779297,97.82792663574219,-0.7598275013668789,1.928,-1.0,1.5733671002522147
2023-09-21 00:00:00-04:00,120.2918701171875,95.43531799316406,-0.7622779291904305,1.691,-1.0,1.5761337015578993
2023-09-22 00:00:00-04:00,120.32131958007812,93.76049041748047,-0.7633811241961045,1.149,-1.0,1.5859930798072643
2023-09-25 00:00:00-04:00,123.29451751708984,93.82030487060547,-0.7627782753936059,0.565,-1.0,1.5973604001286796
2023-09-26 00:00:00-04:00,124.50145721435547,92.06571960449219,-0.7602554927371921,-0.076,-1.0,1.6100057502482894
2023-09-27 00:00:00-04:00,127.37651824951172,91.09870147705078,-0.7556354951354156,-0.805,0.0,1.6236931516153592
2023-09-28 00:00:00-04:00,127.04290771484375,91.90621185302734,-0.7519418176435733,-0.457,0.0,1.6236931516153592
2023-09-29 00:00:00-04:00,124.38370513916016,92.17538452148438,-0.7501848203679844,0.2,0.0,1.6236931516153592
2023-10-02 00:00:00-04:00,121.3418197631836,91.94609069824219,-0.7501442103471048,0.811,0.0,1.6236931516153592
2023-10-03 00:00:00-04:00,121.91094207763672,89.33415222167969,-0.748195089628179,-0.181,0.0,1.6236931516153592
2023-10-04 00:00:00-04:00,117.12242126464844,90.21144104003906,-0.7492743304682724,1.287,0.0,1.6236931516153592
2023-10-05 00:00:00-04:00,116.23929595947266,97.4490966796875,-0.7559921051563177,3.332,-1.0,1.6236931516153592
2023-10-06 00:00:00-04:00,118.41768646240234,93.1822738647461,-0.7586471768671437,1.239,-1.0,1.6577227260306389
2023-10-09 00:00:00-04:00,124.85470581054688,92.41464233398438,-0.7567991158824262,-0.688,0.0,1.6867231880324645
2023-10-10 00:00:00-04:00,124.33464050292969,96.07334899902344,-0.7574769160006282,0.698,0.0,1.6867231880324645
2023-10-11 00:00:00-04:00,124.98226928710938,91.55728912353516,-0.7548868447624222,-0.987,0.0,1.6867231880324645
2023-10-12 00:00:00-04:00,126.54246520996094,83.84111785888672,-0.7460986679219209,-3.087,1.0,1.6867231880324645
2023-10-13 00:00:00-04:00,131.33096313476562,82.9239501953125,-0.7344549867752218,-3.193,1.0,1.6702181522831372
2023-10-16 00:00:00-04:00,132.3331298828125,84.37945556640625,-0.7241373671568601,-2.357,1.0,1.6817872033570405
2023-10-17 00:00:00-04:00,132.59971618652344,86.64247131347656,-0.7163235510071407,-1.541,1.0,1.698888649535971
2023-10-18 00:00:00-04:00,134.0412139892578,86.26363372802734,-0.7085274229224136,-1.509,1.0,1.6968668937657818
2023-10-19 00:00:00-04:00,134.50526428222656,87.2206802368164,-0.7018972615104163,-1.124,1.0,1.7052358277077213
2023-10-20 00:00:00-04:00,131.5432586669922,87.23065185546875,-0.6973893563523709,-0.551,1.0,1.7202216741762526
2023-10-23 00:00:00-04:00,129.973388671875,86.90166473388672,-0.6939877872782277,-0.305,1.0,1.7270422613469758
2023-10-24 00:00:00-04:00,128.29490661621094,88.51667785644531,-0.6928417773400504,0.281,0.0,1.7435406156761668
2023-10-25 00:00:00-04:00,128.0875701904297,88.53661346435547,-0.692105250362136,0.334,0.0,1.7435406156761668
2023-10-26 00:00:00-04:00,126.32023620605469,88.50670623779297,-0.6922669869104278,0.561,0.0,1.7435406156761668
2023-10-27 00:00:00-04:00,124.39491271972656,88.60639953613281,-0.693457412332385,0.815,0.0,1.7435406156761668
2023-10-30 00:00:00-04:00,123.86175537109375,89.24443054199219,-0.6953217210473187,0.928,0.0,1.7435406156761668
2023-10-31 00:00:00-04:00,124.65162658691406,89.52357482910156,-0.6969128144092807,0.81,0.0,1.7435406156761668
2023-11-01 00:00:00-04:00,122.64733123779297,90.68000030517578,-0.70007428021838,1.186,0.0,1.7435406156761668
2023-11-02 00:00:00-04:00,127.02123260498047,93.70999908447266,-0.703095531731196,1.07,0.0,1.7435406156761668
2023-11-03 00:00:00-04:00,126.53744506835938,94.08999633789062,-0.7063310730051977,1.089,0.0,1.7435406156761668
2023-11-06 00:00:00-05:00,124.81947326660156,94.18000030517578,-0.7101941503054394,1.196,0.0,1.7435406156761668
2023-11-07 00:00:00-05:00,121.08733367919922,93.41999816894531,-0.71508279031641,1.399,0.0,1.7435406156761668
2023-11-08 00:00:00-05:00,119.67543029785156,94.37000274658203,-0.7210175510286371,1.558,-1.0,1.7435406156761668
2023-11-09 00:00:00-05:00,119.76429748535156,94.36000061035156,-0.7265361086218495,1.363,-1.0,1.7475930532374784
2023-11-10 00:00:00-05:00,121.14656829833984,94.06999969482422,-0.7306912354740387,1.007,-1.0,1.7574382949936829
2023-11-13 00:00:00-05:00,121.50201416015625,96.12000274658203,-0.7356100442609659,1.142,-1.0,1.7510089209442763
2023-11-14 00:00:00-05:00,123.53593444824219,95.87999725341797,-0.7390015290397638,0.736,-1.0,1.7625231091264362
2023-11-15 00:00:00-05:00,121.51188659667969,94.83000183105469,-0.7422726271775257,0.703,-1.0,1.7622620539062823
2023-11-16 00:00:00-05:00,119.17189025878906,95.69999694824219,-0.7470658058973318,0.99,-1.0,1.7512421516696022
2023-11-17 00:00:00-05:00,122.43011474609375,95.80000305175781,-0.7500034715719653,0.529,-1.0,1.7655994561661683
2023-11-20 00:00:00-05:00,123.64454650878906,97.33000183105469,-0.7529431920179694,0.541,-1.0,1.764256737389997
2023-11-21 00:00:00-05:00,122.67694854736328,98.13999938964844,-0.7566952459674078,0.699,-1.0,1.75861051747773
2023-11-22 00:00:00-05:00,121.6106185913086,98.88999938964844,-0.7612863904538472,0.893,-1.0,1.7533953284837343
2023-11-24 00:00:00-05:00,121.93643951416016,99.20999908447266,-0.765625257092671,0.799,-1.0,1.7557690883931358
2023-11-27 00:00:00-05:00,121.4427719116211,99.68000030517578,-0.7701652133974736,0.803,-1.0,1.754233871817087
2023-11-28 00:00:00-05:00,122.07466888427734,98.44000244140625,-0.7731496146743062,0.45,-1.0,1.7650779813266462
2023-11-29 00:00:00-05:00,121.67973327636719,97.52999877929688,-0.7753154859379263,0.281,-1.0,1.769602926189278
2023-11-30 00:00:00-05:00,121.51188659667969,100.02999877929688,-0.7790458179623226,0.595,-1.0,1.758421985915977
2023-12-01 00:00:00-05:00,122.03517150878906,100.91999816894531,-0.782948241513578,0.565,-1.0,1.7583909194619642
2023-12-04 00:00:00-05:00,121.4427719116211,102.45999908447266,-0.7879303714127406,0.831,-1.0,1.7513316894183264
2023-12-05 00:00:00-05:00,120.40606689453125,100.62000274658203,-0.7918912654355492,0.455,-1.0,1.7589862896286848
2023-12-06 00:00:00-05:00,118.23391723632812,101.0,-0.7968945920950332,0.836,-1.0,1.7512589004142705
2023-12-07 00:00:00-05:00,116.85163879394531,101.0,-0.8023724697766147,1.011,-1.0,1.748889652647276
2023-12-08 00:00:00-05:00,117.45391845703125,100.95999908447266,-0.8070970005781601,0.625,-1.0,1.7543973474934673
2023-12-11 00:00:00-05:00,117.69087982177734,102.61000061035156,-0.8123932691494022,1.009,-1.0,1.7501827232386242
2023-12-12 00:00:00-05:00,116.18025207519531,103.54000091552734,-0.818841948950499,1.685,-1.0,1.7430956354305627
2023-12-13 00:00:00-05:00,116.9800033569336,106.06999969482422,-0.8262149525655881,2.188,-1.0,1.7381004116818501
2023-12-14 00:00:00-05:00,120.5999984741211,104.37000274658203,-0.8297613500793636,-0.769,0.0,1.7631376162334753
2023-12-15 00:00:00-05:00,119.55919647216797,103.68499755859375,-0.8327514013082346,-0.956,0.0,1.7631376162334753
