Date,x,y,hr,zScore,numUnits,cum rets
2022-04-26 00:00:00,96.08634185791016,121.74224090576172,-1.2850071622560018,-0.856,0.0,1.0
2022-04-27 00:00:00,98.15650177001953,125.3297119140625,-1.2827823510130125,-0.658,0.0,1.0
2022-04-28 00:00:00,99.96300506591797,126.5287857055664,-1.2799428589809758,-0.936,0.0,1.0
2022-04-29 00:00:00,96.74059295654297,123.7632064819336,-1.2783810514663503,-0.612,0.0,1.0
2022-05-02 00:00:00,97.65849304199219,126.66413116455078,-1.2785517816699217,-0.178,0.0,1.0
2022-05-03 00:00:00,100.23641204833984,128.8108367919922,-1.2779950468126964,-0.494,0.0,1.0
2022-05-04 00:00:00,108.20455169677734,132.804443359375,-1.2723058696079843,-1.897,1.0,1.0
2022-05-05 00:00:00,106.49569702148438,127.22499084472656,-1.2636862537461002,-2.357,1.0,0.9904992576119278
2022-05-06 00:00:00,105.50945281982422,124.2853775024414,-1.254090441912275,-2.294,1.0,0.9878459012885251
2022-05-09 00:00:00,107.17923736572266,123.50823211669922,-1.2429161917911604,-2.412,1.0,0.9813269748693988
2022-05-10 00:00:00,106.46640014648438,121.46821594238281,-1.2316252451003054,-2.179,1.0,0.9815173476433418
2022-05-11 00:00:00,105.45085144042969,120.74935913085938,-1.2217517085959875,-1.729,1.0,0.9878201984103592
2022-05-12 00:00:00,108.52679443359375,119.79734802246094,-1.209178221897316,-2.113,1.0,0.9744929133914858
2022-05-13 00:00:00,108.9662094116211,118.86478424072266,-1.196249252558144,-1.931,1.0,0.9742719238613461
2022-05-16 00:00:00,108.63420867919922,117.02875518798828,-1.1833112660665952,-1.786,1.0,0.9741360580339368
2022-05-17 00:00:00,112.1300277709961,120.77850341796875,-1.1712570510151536,-1.524,1.0,0.977962719023782
2022-05-18 00:00:00,102.10149383544922,116.14476013183594,-1.1659829939427984,-0.363,1.0,1.0104922798953666
2022-05-19 00:00:00,101.25196838378906,119.1659164428711,-1.1651318436314886,0.255,0.0,1.0277728190115913
2022-05-20 00:00:00,102.9608154296875,116.26133728027344,-1.1610292089147083,-0.37,0.0,1.0277728190115913
2022-05-23 00:00:00,103.13658142089844,119.30191802978516,-1.1590958717448456,0.133,0.0,1.0277728190115913
2022-05-24 00:00:00,102.81433868408203,117.99048614501953,-1.1568481663029235,0.072,0.0,1.0277728190115913
2022-05-25 00:00:00,103.63458251953125,119.8847885131836,-1.1554919331654572,0.326,0.0,1.0277728190115913
2022-05-26 00:00:00,106.15392303466797,122.69223022460938,-1.154278576426197,0.396,0.0,1.0277728190115913
2022-05-27 00:00:00,108.04830932617188,126.31568145751953,-1.1543200425811493,0.712,0.0,1.0277728190115913
2022-05-31 00:00:00,106.92833709716797,122.8768081665039,-1.1528263255431632,0.384,0.0,1.0277728190115913
2022-06-01 00:00:00,105.9458999633789,121.78878784179688,-1.1513053538981421,0.455,0.0,1.0277728190115913
2022-06-02 00:00:00,107.0560531616211,125.11109161376953,-1.1515127555420521,0.896,0.0,1.0277728190115913
2022-06-03 00:00:00,108.0090103149414,121.876220703125,-1.1485250212333842,0.096,0.0,1.0277728190115913
2022-06-06 00:00:00,107.69464111328125,123.4985122680664,-1.146953737775449,0.557,0.0,1.0277728190115913
2022-06-07 00:00:00,107.39006805419922,125.10137939453125,-1.147212006555287,0.959,0.0,1.0277728190115913
2022-06-08 00:00:00,101.28915405273438,123.38195037841797,-1.151801271045334,1.871,-1.0,1.0277728190115913
2022-06-09 00:00:00,99.42251586914062,120.44821166992188,-1.155960262926643,1.589,-1.0,1.0328593036425051
2022-06-10 00:00:00,96.73065185546875,112.58930206298828,-1.1560171757060493,0.664,-1.0,1.0540379193966851
2022-06-13 00:00:00,94.78543090820312,110.06356811523438,-1.155338139074779,0.605,-1.0,1.0550064471502762
2022-06-14 00:00:00,96.8681869506836,108.32471466064453,-1.1513070650967405,-0.14,-1.0,1.0720847392208883
2022-06-15 00:00:00,96.22959899902344,110.37444305419922,-1.1493736608602787,0.454,-1.0,1.0586400202390267
2022-06-16 00:00:00,94.60858917236328,105.40069580078125,-1.1453439836011674,-0.085,-1.0,1.071408350267393
2022-06-17 00:00:00,92.56511688232422,106.87726593017578,-1.1444162345259512,0.692,-1.0,1.0530684191831328
2022-06-21 00:00:00,94.12718963623047,107.44071197509766,-1.1429642100775472,0.489,-1.0,1.0581261650500817
2022-06-22 00:00:00,93.88158416748047,109.51956939697266,-1.143475839584154,0.941,-1.0,1.0474675512298344
2022-06-23 00:00:00,94.7363052368164,111.09329986572266,-1.144701267368056,0.981,-1.0,1.0452798437447406
2022-06-24 00:00:00,98.72499084472656,117.5533447265625,-1.1474813224650557,1.224,-1.0,1.0382631156726407
2022-06-27 00:00:00,98.76428985595703,117.83505249023438,-1.1504390741180295,1.144,-1.0,1.0385029324644708
2022-06-28 00:00:00,96.1117172241211,115.86305236816406,-1.154072906205207,1.224,-1.0,1.0352823678757634
2022-06-29 00:00:00,96.3278579711914,113.86187744140625,-1.1556656399814975,0.698,-1.0,1.0459582354073929
2022-06-30 00:00:00,95.74821472167969,111.07386016845703,-1.1551126830604765,0.224,-1.0,1.0552746205636279
2022-07-01 00:00:00,95.86610412597656,114.49331665039062,-1.1570216793309713,0.867,-1.0,1.041520843772576
2022-07-05 00:00:00,94.8050765991211,115.36761474609375,-1.1608586242654344,1.28,-1.0,1.033810145145668
2022-07-06 00:00:00,95.7973403930664,115.98932647705078,-1.1642249723234979,1.096,-1.0,1.0375577596674468
2022-07-07 00:00:00,96.67169952392578,115.69789123535156,-1.1661763296612977,0.654,-1.0,1.0441155667168402
2022-07-08 00:00:00,95.53206634521484,114.50304412841797,-1.167890404742228,0.598,-1.0,1.044246422101113
2022-07-11 00:00:00,95.62049865722656,110.90872192382812,-1.1663656361048014,-0.771,0.0,1.0602140864338288
2022-07-12 00:00:00,94.64787292480469,112.71559143066406,-1.1669601761504746,0.305,0.0,1.0602140864338288
2022-07-13 00:00:00,92.9875717163086,112.40473937988281,-1.1691607625950964,0.839,0.0,1.0602140864338288
2022-07-14 00:00:00,93.25282287597656,111.55957794189453,-1.1704534835253542,0.281,0.0,1.0602140864338288
2022-07-15 00:00:00,95.12928009033203,113.4636001586914,-1.1712751517441549,0.104,0.0,1.0602140864338288
2022-07-18 00:00:00,94.89348602294922,111.62759399414062,-1.1706590993960981,-0.532,0.0,1.0602140864338288
2022-07-19 00:00:00,98.37130737304688,116.3487548828125,-1.1704351834940052,-0.244,0.0,1.0602140864338288
2022-07-20 00:00:00,100.44425964355469,116.6693344116211,-1.1685290640771453,-1.041,0.0,1.0602140864338288
2022-07-21 00:00:00,99.6779556274414,119.43792724609375,-1.1696025568403068,0.414,0.0,1.0602140864338288
2022-07-22 00:00:00,99.39305114746094,124.08138275146484,-1.1751299272413052,2.062,-1.0,1.0602140864338288
2022-07-25 00:00:00,97.41836547851562,123.24595642089844,-1.1820451339706926,2.183,-1.0,1.0568104721926448
2022-07-26 00:00:00,97.10397338867188,122.61451721191406,-1.1883766581823856,1.709,-1.0,1.0604852231544588
2022-07-27 00:00:00,98.80358123779297,123.30423736572266,-1.1930079471580624,1.002,-1.0,1.0678973599972459
2022-07-28 00:00:00,102.7235107421875,126.63626098632812,-1.1958989901205417,0.455,-1.0,1.0744768069845054
2022-07-29 00:00:00,104.38382720947266,125.5968017578125,-1.195805689967441,-0.623,0.0,1.0865177625392164
2022-08-01 00:00:00,104.60978698730469,125.61624908447266,-1.1951128404760183,-0.687,0.0,1.0865177625392164
2022-08-02 00:00:00,100.4540786743164,123.03224182128906,-1.1963483635242207,0.138,0.0,1.0865177625392164
2022-08-03 00:00:00,100.97476959228516,124.57682800292969,-1.1984907863327425,0.357,0.0,1.0865177625392164
2022-08-04 00:00:00,101.73125457763672,124.46995544433594,-1.199747277621694,-0.146,0.0,1.0865177625392164
2022-08-05 00:00:00,101.71159362792969,123.72196197509766,-1.200190153718407,-0.576,0.0,1.0865177625392164
2022-08-08 00:00:00,101.28915405273438,124.62538146972656,-1.20163497756542,-0.022,0.0,1.0865177625392164
2022-08-09 00:00:00,101.73125457763672,124.15682983398438,-1.2022792649115326,-0.561,0.0,1.0865177625392164
2022-08-10 00:00:00,105.55292510986328,130.3553924560547,-1.2040604617737085,0.102,0.0,1.0865177625392164
2022-08-11 00:00:00,105.9458999633789,130.16015625,-1.2052921587019545,-0.279,0.0,1.0865177625392164
2022-08-12 00:00:00,105.27784729003906,132.3174591064453,-1.2087241688072063,0.951,0.0,1.0865177625392164
2022-08-15 00:00:00,106.56483459472656,133.13743591308594,-1.2115478420755026,0.461,0.0,1.0865177625392164
2022-08-16 00:00:00,106.14237976074219,133.93788146972656,-1.215091448470732,0.906,0.0,1.0865177625392164
2022-08-17 00:00:00,104.66873168945312,130.9899139404297,-1.2174972380750622,0.221,0.0,1.0865177625392164
2022-08-18 00:00:00,106.05396270751953,130.29684448242188,-1.2176602731882653,-0.942,0.0,1.0865177625392164
2022-08-19 00:00:00,105.30731964111328,128.79356384277344,-1.217054209329745,-1.133,0.0,1.0865177625392164
2022-08-22 00:00:00,105.19924926757812,124.19588470458984,-1.2128625367335883,-2.628,1.0,1.0865177625392164
2022-08-23 00:00:00,104.42312622070312,124.6058578491211,-1.209644317845113,-1.756,1.0,1.093242437685606
2022-08-24 00:00:00,104.53118896484375,124.95726776123047,-1.2069913903747214,-1.452,1.0,1.095225534045351
2022-08-25 00:00:00,105.9458999633789,129.00833129882812,-1.2064847243388848,-0.484,1.0,1.1045593136407208
2022-08-26 00:00:00,103.0673599243164,123.03426361083984,-1.204311474511811,-1.365,1.0,1.0953459826667666
2022-08-29 00:00:00,101.8294906616211,122.93663787841797,-1.203207021061629,-0.749,1.0,1.1014798903051786
2022-08-30 00:00:00,101.16143798828125,124.73275756835938,-1.2043848191632487,0.222,0.0,1.1115410373471108
2022-08-31 00:00:00,101.08283996582031,123.95185089111328,-1.2052119536965777,-0.074,0.0,1.1115410373471108
2022-09-01 00:00:00,101.98668670654297,121.57002258300781,-1.203170817123248,-1.273,0.0,1.1115410373471108
2022-09-02 00:00:00,99.89408874511719,120.80863189697266,-1.2023271182028403,-0.578,0.0,1.1115410373471108
2022-09-06 00:00:00,98.82323455810547,120.74029541015625,-1.202673540780622,-0.136,0.0,1.1115410373471108
2022-09-07 00:00:00,100.17900848388672,124.79132843017578,-1.20508056661003,0.648,0.0,1.1115410373471108
2022-09-08 00:00:00,99.63865661621094,124.71324157714844,-1.2080216787315188,0.733,0.0,1.1115410373471108
2022-09-09 00:00:00,101.62318420410156,125.05489349365234,-1.2091505651831815,-0.042,0.0,1.1115410373471108
2022-09-12 00:00:00,102.74315643310547,128.44215393066406,-1.2115826149695093,0.793,0.0,1.1115410373471108
2022-09-13 00:00:00,98.03729248046875,121.5212173461914,-1.2130083875757918,0.277,0.0,1.1115410373471108
2022-09-14 00:00:00,98.6562271118164,117.29448699951172,-1.2101909466603988,-1.842,1.0,1.1115410373471108
2022-09-15 00:00:00,95.28646850585938,117.56781005859375,-1.2105507173621197,0.222,0.0,1.1300759435663845
2022-09-16 00:00:00,91.17988586425781,114.67839813232422,-1.212993977982791,1.05,0.0,1.1300759435663845
2022-09-19 00:00:00,91.5335693359375,116.38666534423828,-1.2165941308849044,1.4,0.0,1.1300759435663845
2022-09-20 00:00:00,88.41924285888672,113.87796020507812,-1.2211627807637362,1.686,-1.0,1.1300759435663845
2022-09-21 00:00:00,87.45645141601562,110.59806823730469,-1.2238201459983338,0.658,-1.0,1.1408124274256266
2022-09-22 00:00:00,86.64103698730469,109.2509765625,-1.2257493929967904,0.421,-1.0,1.1432089009190838
2022-09-23 00:00:00,86.12034606933594,109.64144134521484,-1.2283184677386623,0.741,-1.0,1.1394607145219011
2022-09-26 00:00:00,85.25579071044922,108.51887512207031,-1.2307604546437525,0.613,-1.0,1.1407200845664416
2022-09-27 00:00:00,87.47611236572266,108.41149139404297,-1.2305985297577318,-0.596,0.0,1.1537993691823143
2022-09-28 00:00:00,88.46836853027344,110.59806823730469,-1.2308953014433794,-0.171,0.0,1.1537993691823143
2022-09-29 00:00:00,88.88098907470703,108.94837951660156,-1.2293844562641374,-0.996,0.0,1.1537993691823143
2022-09-30 00:00:00,86.75891876220703,108.05032348632812,-1.2291909632977827,-0.22,0.0,1.1537993691823143
2022-10-03 00:00:00,89.3132553100586,111.46685028076172,-1.2294465436644506,-0.079,0.0,1.1537993691823143
2022-10-04 00:00:00,89.91253662109375,116.3085708618164,-1.2333044865494645,1.567,-1.0,1.1537993691823143
2022-10-05 00:00:00,89.17571258544922,117.3628158569336,-1.2391123995255522,2.033,-1.0,1.1474575856543117
2022-10-06 00:00:00,89.05783081054688,114.92243194580078,-1.2427817652172157,0.901,-1.0,1.1590758438428008
2022-10-07 00:00:00,87.63329315185547,111.64256286621094,-1.2445383851937268,0.198,-1.0,1.166612663697954
2022-10-10 00:00:00,88.19327545166016,108.10888671875,-1.2421814831335256,-1.552,1.0,1.185094310860717
2022-10-11 00:00:00,87.48593139648438,108.11865234375,-1.2401503450722247,-1.137,1.0,1.1900160128009258
2022-10-12 00:00:00,87.30908966064453,107.07416534423828,-1.2375959931936225,-1.412,1.0,1.1872169359884444
2022-10-13 00:00:00,88.61573028564453,109.5438232421875,-1.2359017630369145,-0.942,1.0,1.191794134449685
2022-10-14 00:00:00,88.38976287841797,107.69889831542969,-1.23309399765288,-1.512,1.0,1.1857141914695393
2022-10-17 00:00:00,90.38410949707031,110.60783386230469,-1.2307281694289502,-1.192,1.0,1.1887052378254697
2022-10-18 00:00:00,91.13076782226562,113.9560317993164,-1.2307533874075869,-0.13,1.0,1.1994385401217236
2022-10-19 00:00:00,89.41150665283203,111.90612030029297,-1.2312031407810347,-0.115,1.0,1.1995550404147455
2022-10-20 00:00:00,88.17363739013672,105.82470703125,-1.2276772235686428,-1.882,1.0,1.1797186182170363
2022-10-21 00:00:00,91.31742095947266,109.90499877929688,-1.2240080298154725,-1.562,1.0,1.1822258626643658
2022-10-24 00:00:00,91.97566223144531,109.28026580810547,-1.2193631555264781,-1.812,1.0,1.1776953061638524
2022-10-25 00:00:00,94.34333038330078,110.26618957519531,-1.2132955763319757,-2.095,1.0,1.1717829983918289
2022-10-26 00:00:00,94.9229736328125,110.12950897216797,-1.2068015008349313,-1.982,1.0,1.1707881632741335
2022-10-27 00:00:00,94.70683288574219,109.68048858642578,-1.2006369363924545,-1.703,1.0,1.1725592663655027
2022-10-28 00:00:00,96.16083526611328,111.43756866455078,-1.1950616779373597,-1.423,1.0,1.1749779049498776
2022-10-31 00:00:00,96.13136291503906,111.45707702636719,-1.1901060808711286,-1.178,1.0,1.177329403585283
2022-11-01 00:00:00,97.10397338867188,111.28137969970703,-1.1845261138888912,-1.389,1.0,1.1738324636408126
2022-11-02 00:00:00,91.67109680175781,107.4548568725586,-1.181564769630972,-0.464,1.0,1.187181531784452
2022-11-03 00:00:00,93.22335052490234,107.09368896484375,-1.1773358493097255,-0.966,1.0,1.178876106889708
2022-11-04 00:00:00,93.19388580322266,112.70655822753906,-1.1781136985600598,0.812,0.0,1.2039326443013796
2022-11-07 00:00:00,94.04859924316406,113.56556701660156,-1.179439602690774,0.788,0.0,1.2039326443013796
2022-11-08 00:00:00,102.56632232666016,113.68270874023438,-1.1722637405504965,-2.064,1.0,1.2039326443013796
2022-11-09 00:00:00,102.93964385986328,112.05362701416016,-1.1627848748501288,-2.165,1.0,1.1992251551611073
2022-11-10 00:00:00,106.78097534179688,122.48565673828125,-1.1588966650476478,-0.235,1.0,1.225137824800939
2022-11-11 00:00:00,109.94441986083984,127.66732788085938,-1.1574413229614744,0.309,0.0,1.2317107199878126
2022-11-14 00:00:00,109.82652282714844,125.5770034790039,-1.154858979580881,-0.192,0.0,1.2317107199878126
2022-11-15 00:00:00,113.62854766845703,127.08831787109375,-1.1500411228116934,-0.866,0.0,1.2317107199878126
2022-11-16 00:00:00,109.85599517822266,126.58783721923828,-1.1485159752060252,0.369,0.0,1.2317107199878126
2022-11-17 00:00:00,109.6300277709961,124.30121612548828,-1.1459360579521063,-0.147,0.0,1.2317107199878126
2022-11-18 00:00:00,110.789306640625,126.0775146484375,-1.1438223685097233,0.087,0.0,1.2317107199878126
2022-11-21 00:00:00,111.55560302734375,126.64671325683594,-1.1417250202016145,0.129,0.0,1.2317107199878126
2022-11-22 00:00:00,112.1156005859375,129.53195190429688,-1.1415991312898834,1.051,0.0,1.2317107199878126
2022-11-23 00:00:00,111.98787689208984,130.58203125,-1.142667021072747,1.523,-1.0,1.2317107199878126
2022-11-25 00:00:00,110.789306640625,130.87644958496094,-1.145082105648769,1.99,-1.0,1.2262927667434826
2022-11-28 00:00:00,109.66932678222656,127.8734359741211,-1.1461052279510517,1.229,-1.0,1.2335206666652105
2022-11-29 00:00:00,111.56543731689453,129.37493896484375,-1.1463481309472285,0.94,-1.0,1.236236664810468
2022-11-30 00:00:00,114.69823455810547,132.70181274414062,-1.1462712843755272,0.815,-1.0,1.2372041533304206
2022-12-01 00:00:00,113.89774322509766,132.44664001464844,-1.1466721133760924,1.003,-1.0,1.2348595269612956
2022-12-02 00:00:00,114.16456604003906,134.7430877685547,-1.1486136001731957,1.522,-1.0,1.2282066008781092
2022-12-05 00:00:00,110.50798034667969,132.0835418701172,-1.1517374841535257,1.78,-1.0,1.2235981596521823
2022-12-06 00:00:00,108.89710998535156,129.58102416992188,-1.1542407716192997,1.429,-1.0,1.22720141286809
2022-12-07 00:00:00,106.3375015258789,127.02945709228516,-1.156775018131305,1.418,-1.0,1.2266680862880812
2022-12-08 00:00:00,106.58456420898438,127.93231201171875,-1.1595825765699384,1.416,-1.0,1.2254045322472427
2022-12-09 00:00:00,106.64386749267578,127.98139190673828,-1.162181318854033,1.247,-1.0,1.2265827873438082
2022-12-12 00:00:00,111.95085144042969,129.85581970214844,-1.161257950155848,-0.013,-1.0,1.2427064068533493
2022-12-13 00:00:00,111.11083221435547,131.57321166992188,-1.1620579232413284,0.716,-1.0,1.232717604229927
2022-12-14 00:00:00,111.46660614013672,130.29742431640625,-1.1617028392491127,0.175,-1.0,1.239067528392995
2022-12-15 00:00:00,108.03732299804688,126.37193298339844,-1.1612882592489269,0.166,-1.0,1.238658105613716
2022-12-16 00:00:00,107.26647186279297,123.8203353881836,-1.159637584895753,-0.344,0.0,1.2446181870941717
2022-12-19 00:00:00,106.74269104003906,123.29039764404297,-1.1580351540733922,-0.293,0.0,1.2446181870941717
2022-12-20 00:00:00,105.64571380615234,122.43659210205078,-1.1568844331294192,-0.157,0.0,1.2446181870941717
2022-12-21 00:00:00,106.3375015258789,124.78209686279297,-1.1570612730358085,0.345,0.0,1.2446181870941717
2022-12-22 00:00:00,105.64571380615234,123.51611328125,-1.1570226235483594,0.148,0.0,1.2446181870941717
2022-12-23 00:00:00,106.0509033203125,124.36009979248047,-1.1572498901861814,0.288,0.0,1.2446181870941717
2022-12-27 00:00:00,105.17134094238281,124.06568145751953,-1.1580470466358899,0.521,0.0,1.2446181870941717
2022-12-28 00:00:00,102.9378662109375,121.95571899414062,-1.1592173180928946,0.62,0.0,1.2446181870941717
2022-12-29 00:00:00,103.97554016113281,124.04605102539062,-1.1610281070870874,0.967,0.0,1.2446181870941717
2022-12-30 00:00:00,102.70067596435547,123.39834594726562,-1.163420394049639,1.194,0.0,1.2446181870941717
2023-01-03 00:00:00,103.74824523925781,124.47785949707031,-1.1655887166946426,0.953,0.0,1.2446181870941717
2023-01-04 00:00:00,104.93416595458984,127.54957580566406,-1.1688709641969561,1.533,-1.0,1.2446181870941717
2023-01-05 00:00:00,103.6889419555664,120.81732940673828,-1.1679156647038407,-1.233,0.0,1.2660209015462252
2023-01-06 00:00:00,106.91069793701172,126.10694885253906,-1.1677135960527232,-0.388,0.0,1.2660209015462252
2023-01-09 00:00:00,108.56109619140625,126.47005462646484,-1.1664047071944834,-1.245,0.0,1.2660209015462252
2023-01-10 00:00:00,107.26647186279297,127.36311340332031,-1.1669393774820072,0.07,0.0,1.2660209015462252
2023-01-11 00:00:00,109.11453247070312,129.6300811767578,-1.1677356612753,0.034,0.0,1.2660209015462252
2023-01-12 00:00:00,109.01570129394531,129.16885375976562,-1.1682270546941325,-0.224,0.0,1.2660209015462252
2023-01-13 00:00:00,107.64201354980469,129.93429565429688,-1.170472113688741,1.078,0.0,1.2660209015462252
2023-01-17 00:00:00,106.74269104003906,128.1874542236328,-1.17220311230821,0.558,0.0,1.2660209015462252
2023-01-18 00:00:00,106.03114318847656,125.40035247802734,-1.1722204820836166,-0.651,0.0,1.2660209015462252
2023-01-19 00:00:00,104.27203369140625,121.29820251464844,-1.1704512778366565,-1.695,1.0,1.2660209015462252
2023-01-20 00:00:00,105.47771453857422,128.56039428710938,-1.1731447173363436,1.525,-1.0,1.2880854310039596
2023-01-23 00:00:00,107.55307006835938,127.8734359741211,-1.1737336156447131,-0.316,0.0,1.3006192247055575
2023-01-24 00:00:00,107.07869720458984,128.53094482421875,-1.174960917095483,0.329,0.0,1.3006192247055575
2023-01-25 00:00:00,106.4857406616211,125.76345825195312,-1.174559428611255,-0.808,0.0,1.3006192247055575
2023-01-26 00:00:00,106.94034576416016,125.32184600830078,-1.173240796315903,-1.233,0.0,1.3006192247055575
2023-01-27 00:00:00,106.45609283447266,124.97836303710938,-1.1720953703757575,-0.968,0.0,1.3006192247055575
2023-01-30 00:00:00,104.28190612792969,125.27278137207031,-1.1732677739362745,0.723,0.0,1.3006192247055575
2023-01-31 00:00:00,106.88105010986328,127.91268920898438,-1.1743058813654914,0.442,0.0,1.3006192247055575
2023-02-01 00:00:00,112.32640075683594,129.5515594482422,-1.1715655493281147,-2.234,1.0,1.3006192247055575
2023-02-02 00:00:00,117.47527313232422,131.92649841308594,-1.1658282357356535,-3.22,1.0,1.28952400589897
2023-02-03 00:00:00,115.6568603515625,128.29541015625,-1.1591358992012313,-2.974,1.0,1.2867144164633533
2023-02-06 00:00:00,113.00830078125,127.02945709228516,-1.154317217561162,-1.822,1.0,1.295836161293676
2023-02-07 00:00:00,112.63275909423828,128.82537841796875,-1.1518322027217713,-0.807,1.0,1.3055411245228739
2023-02-08 00:00:00,111.66425323486328,127.95195007324219,-1.1500154422471438,-0.627,1.0,1.3072768943860416
2023-02-09 00:00:00,110.57716369628906,126.46024322509766,-1.148247504163263,-0.634,1.0,1.3070952131436402
2023-02-10 00:00:00,110.6463394165039,123.87922668457031,-1.1446213850611984,-1.434,1.0,1.29807731471348
2023-02-13 00:00:00,111.5160140991211,126.34248352050781,-1.1421996371290046,-0.731,1.0,1.304926989299921
2023-02-14 00:00:00,111.78285217285156,127.36311340332031,-1.1406627550301487,-0.371,1.0,1.3084097288019878
2023-02-15 00:00:00,112.2374496459961,128.59963989257812,-1.1398996109457291,-0.046,1.0,1.3115423410948392
2023-02-16 00:00:00,110.88352966308594,127.34735870361328,-1.1395086476305738,0.101,1.0,1.3128604448939354
2023-02-17 00:00:00,110.09291076660156,128.0967559814453,-1.1404362370130063,0.715,0.0,1.3189640879235485
2023-02-21 00:00:00,103.96566009521484,124.43854522705078,-1.143959972528202,1.802,-1.0,1.3189640879235485
2023-02-22 00:00:00,103.96566009521484,126.87407684326172,-1.1493685920827512,2.298,-1.0,1.3113607719178693
2023-02-23 00:00:00,106.4758529663086,126.38104248046875,-1.1520081542114653,1.034,-1.0,1.3260539540589538
2023-02-24 00:00:00,105.93231201171875,127.8995590209961,-1.1557537768783819,1.543,-1.0,1.3190716143314807
2023-02-27 00:00:00,104.53884887695312,129.7730255126953,-1.1620004216075785,2.249,-1.0,1.3078040277143854
2023-02-28 00:00:00,103.33316802978516,130.2167510986328,-1.1694771005802116,2.293,-1.0,1.3035336240977133
2023-03-01 00:00:00,104.14354705810547,131.37042236328125,-1.1766846711501044,1.951,-1.0,1.3056787175662978
2023-03-02 00:00:00,108.65992736816406,132.95794677734375,-1.1804155302081112,0.794,-1.0,1.32149755711775
2023-03-03 00:00:00,108.11638641357422,135.5413818359375,-1.185899944812862,1.416,-1.0,1.3115183407916609
2023-03-06 00:00:00,108.5116958618164,131.7747039794922,-1.1878791452987594,0.259,-1.0,1.3285904327950315
2023-03-07 00:00:00,108.32392120361328,129.08279418945312,-1.1873837491395647,-0.355,0.0,1.3379623668555527
2023-03-08 00:00:00,109.56913757324219,129.3786163330078,-1.1857319486457605,-0.603,0.0,1.3379623668555527
2023-03-09 00:00:00,109.01570129394531,125.62179565429688,-1.1817085560017024,-1.256,0.0,1.3379623668555527
2023-03-10 00:00:00,106.12995910644531,124.24134063720703,-1.1792956870539144,-0.629,0.0,1.3379623668555527
2023-03-13 00:00:00,106.4857406616211,122.9693374633789,-1.1759669883038686,-0.931,0.0,1.3379623668555527
2023-03-14 00:00:00,104.8946304321289,127.35723114013672,-1.1776116297074006,0.605,0.0,1.3379623668555527
2023-03-15 00:00:00,104.44991302490234,123.67929077148438,-1.1772839646864302,-0.185,0.0,1.3379623668555527
2023-03-16 00:00:00,106.09043884277344,124.7836685180664,-1.1761102113463167,-0.364,0.0,1.3379623668555527
2023-03-17 00:00:00,105.18123626708984,120.78032684326172,-1.1726638534037155,-0.981,0.0,1.3379623668555527
2023-03-20 00:00:00,104.0842514038086,123.56095886230469,-1.1723674404069633,0.053,0.0,1.3379623668555527
2023-03-21 00:00:00,104.6574478149414,124.83295440673828,-1.1729364911812914,0.191,0.0,1.3379623668555527
2023-03-22 00:00:00,103.44187927246094,121.88468933105469,-1.1723822156416615,-0.198,0.0,1.3379623668555527
2023-03-23 00:00:00,103.33316802978516,121.78609466552734,-1.1717583527527817,-0.227,0.0,1.3379623668555527
2023-03-24 00:00:00,103.26399230957031,123.68914794921875,-1.1727216295491945,0.219,0.0,1.3379623668555527
2023-03-27 00:00:00,104.19296264648438,124.24134063720703,-1.1733819923537177,0.005,0.0,1.3379623668555527
2023-03-28 00:00:00,103.66918182373047,124.45826721191406,-1.1746022249382386,0.181,0.0,1.3379623668555527
2023-03-29 00:00:00,104.35108184814453,126.4500732421875,-1.1767239178186575,0.433,0.0,1.3379623668555527
2023-03-30 00:00:00,105.80384063720703,128.01788330078125,-1.1786713097223647,0.299,0.0,1.3379623668555527
2023-03-31 00:00:00,108.82793426513672,131.7155303955078,-1.1805360430804204,0.234,0.0,1.3379623668555527
2023-04-03 00:00:00,107.04905700683594,138.08535766601562,-1.188827552915711,2.3,-1.0,1.3379623668555527
2023-04-04 00:00:00,105.21087646484375,136.38937377929688,-1.1975899267411139,1.978,-1.0,1.3396110696315748
2023-04-05 00:00:00,104.39060974121094,137.01058959960938,-1.2069493834155711,1.953,-1.0,1.337228909061917
2023-04-06 00:00:00,104.11389923095703,136.14288330078125,-1.2152125873743327,1.484,-1.0,1.3425362532951255
2023-04-10 00:00:00,106.42645263671875,136.40908813476562,-1.2206828171015343,0.668,-1.0,1.354274735150513
2023-04-11 00:00:00,107.78036499023438,137.35569763183594,-1.2248009956204802,0.382,-1.0,1.3585438346843635
2023-04-12 00:00:00,108.4820327758789,136.0836944580078,-1.226744270144439,-0.171,-1.0,1.3672456748663044
2023-04-13 00:00:00,108.94652557373047,137.3458251953125,-1.2287942889709726,-0.051,-1.0,1.3655165373048783
2023-04-14 00:00:00,110.3597412109375,136.4879913330078,-1.2286703356246822,-0.666,0.0,1.3750015061118572
2023-04-17 00:00:00,109.8458480834961,138.96295166015625,-1.2306959445561525,0.095,0.0,1.3750015061118572
2023-04-18 00:00:00,110.27080535888672,139.63343811035156,-1.2329145693166264,0.117,0.0,1.3750015061118572
2023-04-19 00:00:00,110.52774810791016,138.58824157714844,-1.2339154244171604,-0.232,0.0,1.3750015061118572
2023-04-20 00:00:00,110.4190444946289,139.47569274902344,-1.2354693401656807,0.016,0.0,1.3750015061118572
2023-04-21 00:00:00,109.9347915649414,139.998291015625,-1.2378130669655896,0.29,0.0,1.3750015061118572
2023-04-24 00:00:00,111.2689437866211,140.96463012695312,-1.2395231915136309,0.04,0.0,1.3750015061118572
2023-04-25 00:00:00,108.38321685791016,138.4699249267578,-1.241840303038386,0.249,0.0,1.3750015061118572
2023-04-26 00:00:00,105.47771453857422,135.7188720703125,-1.2446968445689643,0.371,0.0,1.3750015061118572
2023-04-27 00:00:00,110.29056549072266,136.99085998535156,-1.24377407649953,-1.03,0.0,1.3750015061118572
2023-04-28 00:00:00,112.50428009033203,138.3022918701172,-1.2413903762491558,-1.372,0.0,1.3750015061118572
2023-05-01 00:00:00,115.10343170166016,137.80926513671875,-1.2362265076719263,-2.202,1.0,1.3750015061118572
2023-05-02 00:00:00,111.91132354736328,137.65150451660156,-1.2340771437030977,-0.99,1.0,1.389611910429088
2023-05-03 00:00:00,116.41783142089844,136.40908813476562,-1.2273285015609343,-2.404,1.0,1.3680640958404062
2023-05-04 00:00:00,115.58767700195312,133.60874938964844,-1.2193362307100029,-2.357,1.0,1.3649402142378793
2023-05-05 00:00:00,116.28934478759766,136.10340881347656,-1.2131564447042207,-1.736,1.0,1.3734463432128543
2023-05-08 00:00:00,115.1824951171875,136.74435424804688,-1.2092182864952814,-1.123,1.0,1.3822764598844204
2023-05-09 00:00:00,114.16456604003906,135.83311462402344,-1.2061147550611109,-0.931,1.0,1.3847404506597152
2023-05-10 00:00:00,112.69205474853516,135.5557861328125,-1.204487754996687,-0.548,1.0,1.3909405567099997
2023-05-11 00:00:00,111.0515365600586,135.93215942382812,-1.2049151983227782,-0.043,1.0,1.3994854164228978
2023-05-12 00:00:00,111.63461303710938,136.78396606445312,-1.2056469064028317,-0.025,1.0,1.3997343883665403
2023-05-15 00:00:00,111.36778259277344,139.2898712158203,-1.2084616593795134,0.517,0.0,1.4089143018757153
2023-05-16 00:00:00,110.01385498046875,138.0022430419922,-1.211537840017822,0.504,0.0,1.4089143018757153
2023-05-17 00:00:00,112.11885833740234,141.0529022216797,-1.2147638268465255,0.525,0.0,1.4089143018757153
2023-05-18 00:00:00,113.32454681396484,141.2113800048828,-1.21675849539874,0.186,0.0,1.4089143018757153
2023-05-19 00:00:00,113.22572326660156,141.04299926757812,-1.2184096730063163,0.135,0.0,1.4089143018757153
2023-05-22 00:00:00,113.08736419677734,139.33937072753906,-1.2187387307532904,-0.161,0.0,1.4089143018757153
2023-05-23 00:00:00,113.2059555053711,135.5756072998047,-1.2159845542928551,-0.959,0.0,1.4089143018757153
2023-05-24 00:00:00,110.91317749023438,132.138671875,-1.2126357991099674,-0.998,0.0,1.4089143018757153
2023-05-25 00:00:00,112.91935729980469,131.7721710205078,-1.2074150319018178,-1.529,1.0,1.4089143018757153
2023-05-26 00:00:00,114.15469360351562,132.45559692382812,-1.2018318316661318,-1.486,1.0,1.4082809290192362
2023-05-30 00:00:00,113.74949645996094,133.06971740722656,-1.197506216332289,-0.992,1.0,1.4141970893438993
2023-05-31 00:00:00,109.67317199707031,130.0388641357422,-1.1950556295867107,-0.376,1.0,1.4223138969795468
2023-06-01 00:00:00,110.83641815185547,133.69369506835938,-1.1946958908511447,0.285,0.0,1.4309740881677557
2023-06-02 00:00:00,113.3021011352539,138.2498779296875,-1.1957960237892589,0.683,0.0,1.4309740881677557
2023-06-05 00:00:00,113.60037231445312,136.60568237304688,-1.195476205290317,0.161,0.0,1.4309740881677557
2023-06-06 00:00:00,114.47528839111328,137.89329528808594,-1.195206550582428,0.264,0.0,1.4309740881677557
2023-06-07 00:00:00,116.14559173583984,140.49822998046875,-1.1954167580217006,0.437,0.0,1.4309740881677557
2023-06-08 00:00:00,115.85726165771484,139.82470703125,-1.1954179288322397,0.36,0.0,1.4309740881677557
2023-06-09 00:00:00,114.64430236816406,138.33900451660156,-1.1953697979069007,0.381,0.0,1.4309740881677557
2023-06-12 00:00:00,115.49934387207031,138.6559600830078,-1.1948004412077216,0.215,0.0,1.4309740881677557
2023-06-13 00:00:00,116.38420104980469,139.97329711914062,-1.194415516089281,0.339,0.0,1.4309740881677557
2023-06-14 00:00:00,116.96085357666016,139.35919189453125,-1.1931273144043202,0.029,0.0,1.4309740881677557
2023-06-15 00:00:00,118.5814437866211,139.92376708984375,-1.1908535719513558,-0.306,0.0,1.4309740881677557
2023-06-16 00:00:00,118.14398956298828,141.71652221679688,-1.1903679994016128,0.416,0.0,1.4309740881677557
2023-06-20 00:00:00,115.12153625488281,140.68641662597656,-1.1919910992645595,1.101,0.0,1.4309740881677557
2023-06-21 00:00:00,115.05194091796875,140.98355102539062,-1.1939798500355818,1.09,0.0,1.4309740881677557
2023-06-22 00:00:00,113.93840789794922,139.4285430908203,-1.1956767493839127,0.923,0.0,1.4309740881677557
2023-06-23 00:00:00,113.78926849365234,137.5664520263672,-1.1959711233716395,0.304,0.0,1.4309740881677557
2023-06-26 00:00:00,115.330322265625,139.73558044433594,-1.196329550614363,0.36,0.0,1.4309740881677557
2023-06-27 00:00:00,117.69657897949219,143.0536346435547,-1.1970194855954213,0.477,0.0,1.4309740881677557
2023-06-28 00:00:00,118.29312133789062,141.93441772460938,-1.1963490246521509,-0.265,0.0,1.4309740881677557
2023-06-29 00:00:00,119.44642639160156,143.98468017578125,-1.1960810755866103,0.009,0.0,1.4309740881677557
2023-06-30 00:00:00,120.43070220947266,146.88677978515625,-1.1971284030094451,0.663,0.0,1.4309740881677557
2023-07-03 00:00:00,120.98748016357422,147.64942932128906,-1.1982881071673164,0.636,0.0,1.4309740881677557
2023-07-05 00:00:00,120.46054077148438,144.78697204589844,-1.1977488817154636,-0.212,0.0,1.4309740881677557
2023-07-06 00:00:00,116.87137603759766,143.8460235595703,-1.1994979343736287,1.168,0.0,1.4309740881677557
2023-07-07 00:00:00,118.21358489990234,145.37135314941406,-1.201274493829815,1.088,0.0,1.4309740881677557
2023-07-10 00:00:00,120.38099670410156,146.49057006835938,-1.201833557786587,0.422,0.0,1.4309740881677557
2023-07-11 00:00:00,122.2501449584961,149.1549530029297,-1.2025165464687846,0.592,0.0,1.4309740881677557
2023-07-12 00:00:00,122.0413589477539,150.22463989257812,-1.2040933563214669,1.067,0.0,1.4309740881677557
2023-07-13 00:00:00,121.06700897216797,150.06617736816406,-1.206343772899046,1.323,0.0,1.4309740881677557
2023-07-14 00:00:00,120.89799499511719,148.31304931640625,-1.207362661860975,0.523,0.0,1.4309740881677557
2023-07-17 00:00:00,121.30563354492188,149.75912475585938,-1.208845353548756,0.877,0.0,1.4309740881677557
2023-07-18 00:00:00,122.35950469970703,149.92750549316406,-1.2094602570044406,0.187,0.0,1.4309740881677557
2023-07-19 00:00:00,123.79119873046875,148.8280792236328,-1.2079321228542454,-1.762,1.0,1.4309740881677557
2023-07-20 00:00:00,123.7613754272461,148.29324340820312,-1.2059762418934707,-1.956,1.0,1.4301112020214335
2023-07-21 00:00:00,124.0298080444336,147.9267578125,-1.2036680724402367,-2.049,1.0,1.4287521731265982
2023-07-24 00:00:00,124.26842498779297,144.47991943359375,-1.1989122950039541,-3.31,1.0,1.4180420677954326
2023-07-25 00:00:00,124.72576904296875,145.6090545654297,-1.1947488103196118,-2.387,1.0,1.4217760125733587
2023-07-26 00:00:00,125.50126647949219,144.78697204589844,-1.1897973254327658,-2.563,1.0,1.417943443009648
2023-07-27 00:00:00,125.37201690673828,143.4201202392578,-1.1843702174850201,-2.449,1.0,1.4161186716423928
2023-07-28 00:00:00,126.50543212890625,144.02432250976562,-1.1788733943128913,-2.202,1.0,1.4159726652527165
2023-07-31 00:00:00,126.56509399414062,142.5286865234375,-1.172782788015053,-2.227,1.0,1.4132399665641506
2023-08-01 00:00:00,124.74565124511719,144.16297912597656,-1.169784076838842,-0.765,1.0,1.4275189902235783
2023-08-02 00:00:00,123.71165466308594,140.41900634765625,-1.1655890839062248,-1.366,1.0,1.4204376919011332
2023-08-03 00:00:00,123.71165466308594,138.94320678710938,-1.160620466573866,-1.548,1.0,1.4173897414178773
2023-08-04 00:00:00,123.04552459716797,139.23043823242188,-1.1567356693979964,-1.025,1.0,1.4228534219017681
2023-08-07 00:00:00,124.08946228027344,141.89479064941406,-1.1542927642930427,-0.447,1.0,1.4290257960005537
2023-08-08 00:00:00,118.63115692138672,141.96414184570312,-1.1566027485506274,1.44,0.0,1.4508609724245518
2023-08-09 00:00:00,116.69242095947266,138.74038696289062,-1.1585053966277519,1.068,0.0,1.4508609724245518
2023-08-10 00:00:00,117.28895568847656,138.75033569335938,-1.1597455709203337,0.818,0.0,1.4508609724245518
2023-08-11 00:00:00,116.29472351074219,135.95443725585938,-1.1596745590503441,0.313,0.0,1.4508609724245518
2023-08-14 00:00:00,116.26490020751953,138.92942810058594,-1.1615931829855204,1.144,0.0,1.4508609724245518
2023-08-15 00:00:00,114.51506042480469,138.17323303222656,-1.164458338482913,1.377,0.0,1.4508609724245518
2023-08-16 00:00:00,113.461181640625,136.9494171142578,-1.1672010430354007,1.22,0.0,1.4508609724245518
2023-08-17 00:00:00,113.27227783203125,137.37725830078125,-1.1701831389242217,1.248,0.0,1.4508609724245518
2023-08-18 00:00:00,115.16130828857422,138.82992553710938,-1.172417595555583,0.942,0.0,1.4508609724245518
2023-08-21 00:00:00,113.93840789794922,137.90460205078125,-1.1747624920687305,0.989,0.0,1.4508609724245518
2023-08-22 00:00:00,113.8588638305664,137.66580200195312,-1.1768303297905005,0.846,0.0,1.4508609724245518
2023-08-23 00:00:00,114.03782653808594,137.1583709716797,-1.1781906089258518,0.614,0.0,1.4508609724245518
2023-08-24 00:00:00,113.32199096679688,136.56137084960938,-1.1795474503051697,0.646,0.0,1.4508609724245518
2023-08-25 00:00:00,113.66001892089844,137.67575073242188,-1.1813126354528092,0.771,0.0,1.4508609724245518
2023-08-28 00:00:00,114.34603881835938,138.13343811035156,-1.1827235433274457,0.62,0.0,1.4508609724245518
2023-08-29 00:00:00,116.38420104980469,140.2527618408203,-1.1837708058469887,0.514,0.0,1.4508609724245518
2023-08-30 00:00:00,117.10004425048828,141.32733154296875,-1.1848557189400604,0.559,0.0,1.4508609724245518
2023-08-31 00:00:00,116.03622436523438,141.04873657226562,-1.1865624524544558,0.766,0.0,1.4508609724245518
2023-09-01 00:00:00,115.69818878173828,141.2974853515625,-1.188661576812023,0.871,0.0,1.4508609724245518
2023-09-05 00:00:00,114.89286041259766,135.7852783203125,-1.187332094681138,-0.331,0.0,1.4508609724245518
2023-09-06 00:00:00,114.92268371582031,136.3623809814453,-1.1861455094271869,-0.149,0.0,1.4508609724245518
2023-09-07 00:00:00,114.83321380615234,135.49673461914062,-1.1845211401386477,-0.313,0.0,1.4508609724245518
2023-09-08 00:00:00,114.06765747070312,135.01914978027344,-1.1832955304866968,-0.166,0.0,1.4508609724245518
2023-09-11 00:00:00,115.54905700683594,135.6658935546875,-1.1814099097583266,-0.459,0.0,1.4508609724245518
2023-09-12 00:00:00,115.76778411865234,133.16847229003906,-1.177612458128499,-1.132,0.0,1.4508609724245518
2023-09-13 00:00:00,117.59716033935547,132.3326873779297,-1.1717687767111928,-1.766,1.0,1.4508609724245518
2023-09-14 00:00:00,117.65681457519531,133.71571350097656,-1.1671663723430878,-1.273,1.0,1.4577035933559912
2023-09-15 00:00:00,117.75624084472656,133.12867736816406,-1.16258256367804,-1.356,1.0,1.457098804865809
2023-09-18 00:00:00,117.07022094726562,131.82525634765625,-1.1580282558288046,-1.414,1.0,1.4572009290151264
2023-09-19 00:00:00,116.69242095947266,131.54666137695312,-1.1539786738073123,-1.193,1.0,1.4595730044404889
2023-09-20 00:00:00,114.17701721191406,130.14373779296875,-1.1514044230983829,-0.689,1.0,1.466429527530398
2023-09-21 00:00:00,112.34764099121094,127.64631652832031,-1.1489076174898984,-0.782,1.0,1.4659988726607294
2023-09-22 00:00:00,113.25239562988281,129.4770965576172,-1.1471930947657636,-0.502,1.0,1.469797933492385
2023-09-25 00:00:00,115.20108032226562,131.38746643066406,-1.1454650816684455,-0.554,1.0,1.4693191768770228
2023-09-26 00:00:00,113.34187316894531,127.9647216796875,-1.1429367445107432,-0.836,1.0,1.4654104668864896
2023-09-27 00:00:00,113.00383758544922,127.38762664794922,-1.1403892298455378,-0.756,1.0,1.4657895299967636
2023-09-28 00:00:00,113.73956298828125,129.90493774414062,-1.1392720572716395,-0.125,1.0,1.472747014227969
2023-09-29 00:00:00,113.96823120117188,129.1487579345703,-1.1376565849283635,-0.391,1.0,1.469529993350411
2023-10-02 00:00:00,114.06765747070312,128.7209014892578,-1.1357262348715502,-0.459,1.0,1.468287966692491
2023-10-03 00:00:00,113.25239562988281,128.0045166015625,-1.134074627441479,-0.28,1.0,1.4698344338535165
2023-10-04 00:00:00,114.67413330078125,132.5515899658203,-1.1347362705585573,0.779,0.0,1.480717948446409
2023-10-05 00:00:00,113.5506591796875,130.67108154296875,-1.1351470348705808,0.597,0.0,1.480717948446409
2023-10-06 00:00:00,113.93840789794922,132.46205139160156,-1.1364862746793463,1.073,0.0,1.480717948446409
2023-10-09 00:00:00,116.1356430053711,128.1139678955078,-1.132803738685894,-1.317,0.0,1.480717948446409
2023-10-10 00:00:00,117.03044891357422,129.6263427734375,-1.1292672468455216,-0.911,0.0,1.480717948446409
2023-10-11 00:00:00,116.32455444335938,131.8551025390625,-1.1282608634827014,0.363,0.0,1.480717948446409
2023-10-12 00:00:00,116.0859375,129.40744018554688,-1.1260211371965698,-0.37,0.0,1.480717948446409
2023-10-13 00:00:00,115.77772521972656,127.81547546386719,-1.122933559418946,-0.691,0.0,1.480717948446409
2023-10-16 00:00:00,118.25335693359375,129.6959991455078,-1.1193677836641414,-0.845,0.0,1.480717948446409
2023-10-17 00:00:00,119.7148666381836,130.79046630859375,-1.1156750898659809,-0.838,0.0,1.480717948446409
2023-10-18 00:00:00,116.50350952148438,127.13888549804688,-1.1122429773631142,-0.645,0.0,1.480717948446409
2023-10-19 00:00:00,114.11736297607422,123.71614074707031,-1.108566687630163,-0.768,0.0,1.480717948446409
2023-10-20 00:00:00,114.53494262695312,124.09423828125,-1.1051042770246389,-0.579,0.0,1.480717948446409
2023-10-23 00:00:00,113.0436019897461,123.06940460205078,-1.1024007480568343,-0.062,0.0,1.480717948446409
2023-10-24 00:00:00,111.53237915039062,122.2336196899414,-1.1005990566406085,0.51,0.0,1.480717948446409
2023-10-25 00:00:00,108.25142669677734,120.87049865722656,-1.1006794875935526,1.63,-1.0,1.480717948446409
2023-10-26 00:00:00,107.87361907958984,121.39783477783203,-1.1016499912411422,1.927,-1.0,1.47722768612047
2023-10-27 00:00:00,107.1279525756836,120.11431121826172,-1.1023027754605608,1.559,-1.0,1.4794610513139363
2023-10-30 00:00:00,108.3508529663086,121.20878601074219,-1.1026834585166834,1.329,-1.0,1.480685799216984
2023-10-31 00:00:00,108.61929321289062,122.15401458740234,-1.103487371239071,1.537,-1.0,1.478364018456331
2023-11-01 00:00:00,109.2854232788086,122.35301971435547,-1.1038755061011687,1.186,-1.0,1.4807446811552942
2023-11-02 00:00:00,112.15873718261719,124.2932357788086,-1.1032685200026346,0.57,-1.0,1.4854355054704513
2023-11-03 00:00:00,112.29792785644531,127.66622161865234,-1.1050001125834952,1.952,-1.0,1.473420008058266
2023-11-06 00:00:00,110.84635925292969,127.1090316772461,-1.1076277937364778,2.12,-1.0,1.4703965252278701
2023-11-07 00:00:00,109.76265716552734,127.16873168945312,-1.1110821472842063,2.255,-1.0,1.4668606181044386
2023-11-08 00:00:00,112.55642700195312,128.90000915527344,-1.1133203072494893,1.441,-1.0,1.473251951597722
2023-11-09 00:00:00,113.07343292236328,127.37000274658203,-1.113663329226995,0.504,-1.0,1.4817178905989006
2023-11-10 00:00:00,114.68407440185547,128.80999755859375,-1.1135033298185468,0.34,-1.0,1.4830253122310586
2023-11-13 00:00:00,113.2126235961914,129.27999877929688,-1.1148694834514603,1.101,-1.0,1.4753782616712516
2023-11-14 00:00:00,117.67669677734375,133.50999450683594,-1.115730884611376,0.701,-1.0,1.4785814806929745
2023-11-15 00:00:00,117.71646881103516,133.6199951171875,-1.1165072641206744,0.662,-1.0,1.4786786955773161
2023-11-16 00:00:00,117.12987518310547,135.16000366210938,-1.1188221547172916,1.373,-1.0,1.471451995641007
2023-11-17 00:00:00,118.29312133789062,135.8699951171875,-1.1206623853473263,0.985,-1.0,1.4744663409236054
2023-11-20 00:00:00,116.85149383544922,135.55999755859375,-1.123244985500781,1.304,-1.0,1.4707041553188909
2023-11-21 00:00:00,117.18952941894531,136.5800018310547,-1.1261497888425038,1.363,-1.0,1.4695874483743538
2023-11-22 00:00:00,117.36849212646484,136.63999938964844,-1.1287311355855718,1.142,-1.0,1.4712391807211072
2023-11-24 00:00:00,117.44802856445312,136.4499969482422,-1.1308481514975806,0.929,-1.0,1.4732016166409427
2023-11-27 00:00:00,117.88549041748047,137.2899932861328,-1.1329820526392134,0.917,-1.0,1.4728555332461999
2023-11-28 00:00:00,118.87971496582031,138.0800018310547,-1.1346854392009382,0.662,-1.0,1.474829838094994
2023-11-29 00:00:00,118.83000183105469,139.5500030517578,-1.1372992601611973,1.087,-1.0,1.470403807701974
2023-11-30 00:00:00,120.33999633789062,141.99000549316406,-1.1402986947538771,1.159,-1.0,1.469108258603796
2023-12-01 00:00:00,120.08999633789062,143.6300048828125,-1.1444582455042924,1.621,-1.0,1.4640363412293538
2023-12-04 00:00:00,121.80999755859375,143.14999389648438,-1.146604669441365,0.51,-1.0,1.4736182538445552
2023-12-05 00:00:00,121.04000091552734,142.64999389648438,-1.1486242242623814,0.524,-1.0,1.4731267915860815
2023-12-06 00:00:00,120.62000274658203,142.6999969482422,-1.1508324157410685,0.603,-1.0,1.4721816463291644
2023-12-07 00:00:00,120.0999984741211,144.97999572753906,-1.1549229628931086,1.734,-1.0,1.4637668503544623
2023-12-08 00:00:00,120.37000274658203,143.97999572753906,-1.1579123097300996,0.87,-1.0,1.4696663216588024
2023-12-11 00:00:00,120.37999725341797,145.83999633789062,-1.1618460825313486,1.675,-1.0,1.4648540509768422
2023-12-12 00:00:00,120.5199966430664,145.3699951171875,-1.1650827624123137,1.01,-1.0,1.4684327582959136
2023-12-13 00:00:00,122.29000091552734,147.47000122070312,-1.1679911987245952,0.743,-1.0,1.4695277085227394
2023-12-14 00:00:00,123.5199966430664,149.14999389648438,-1.1707781437375626,0.633,-1.0,1.4698710956404566
2023-12-15 00:00:00,124.44999694824219,148.67999267578125,-1.1721999238756653,-0.605,0.0,1.4757638312348764
2023-12-18 00:00:00,126.5199966430664,148.75,-1.171698716214827,-2.11,1.0,1.4757638312348764
2023-12-19 00:00:00,126.48999786376953,149.50999450683594,-1.1716111689733384,-1.507,1.0,1.4784719222371863
2023-12-20 00:00:00,125.43000030517578,146.32000732421875,-1.17021153478036,-2.44,1.0,1.4724244017295676
2023-12-21 00:00:00,126.66999816894531,147.75,-1.1687965847581232,-2.255,1.0,1.472959100201144
2023-12-22 00:00:00,128.91000366210938,148.75,-1.166389102630892,-2.609,1.0,1.4685869105871099
2023-12-26 00:00:00,128.30999755859375,149.69000244140625,-1.165243124529082,-1.549,1.0,1.474559067891132
2023-12-27 00:00:00,127.87999725341797,150.16000366210938,-1.164991144805353,-0.98,1.0,1.4779129570796599
2023-12-28 00:00:00,127.58000183105469,150.3800048828125,-1.1652379412851308,-0.674,1.0,1.479712064297517
2023-12-29 00:00:00,127.19999694824219,149.5500030517578,-1.1652441224509256,-0.867,1.0,1.4784090680137876
2024-01-02 00:00:00,127.08000183105469,147.27999877929688,-1.1637690388546542,-1.759,1.0,1.4718273849520942
2024-01-03 00:00:00,127.27999877929688,145.6199951171875,-1.1609926936651718,-2.237,1.0,1.466580530236792
2024-01-04 00:00:00,127.25,144.91000366210938,-1.157879975020282,-2.133,1.0,1.4656256305829176
2024-01-05 00:00:00,128.52000427246094,145.94000244140625,-1.1547126677212678,-1.962,1.0,1.465511983201601
2024-01-08 00:00:00,126.2699966430664,147.38999938964844,-1.154574675106262,-0.35,1.0,1.4793790934541584
2024-01-09 00:00:00,122.8499984741211,146.22999572753906,-1.1566295773056654,0.63,0.0,1.4881754927232864
2024-01-10 00:00:00,125.08000183105469,147.2899932861328,-1.1576807603972095,0.008,0.0,1.4881754927232864
2024-01-11 00:00:00,125.41999816894531,146.38999938964844,-1.1576672929745477,-0.463,0.0,1.4881754927232864
2024-01-12 00:00:00,126.66000366210938,145.5500030517578,-1.156006593074847,-1.203,0.0,1.4881754927232864
2024-01-16 00:00:00,127.19000244140625,143.75999450683594,-1.1527039360073357,-1.81,1.0,1.4881754927232864
2024-01-17 00:00:00,126.55999755859375,143.0800018310547,-1.1495689324433134,-1.529,1.0,1.4897105910724682
2024-01-18 00:00:00,128.63999938964844,144.9499969482422,-1.1463707284003606,-1.463,1.0,1.4893354671799104
2024-01-19 00:00:00,127.43000030517578,141.38999938964844,-1.1419762558268753,-1.856,1.0,1.4837138752139194
2024-01-22 00:00:00,128.6699981689453,142.13999938964844,-1.1374074065740183,-1.741,1.0,1.4834428979313306
2024-01-23 00:00:00,128.5,142.44000244140625,-1.1335603938784682,-1.35,1.0,1.4868711962447527
2024-01-24 00:00:00,127.18000030517578,141.02999877929688,-1.130173827838354,-1.111,1.0,1.4886867222477305
2024-01-25 00:00:00,129.97999572753906,142.7899932861328,-1.126179321478651,-1.313,1.0,1.485625274862966
2024-01-26 00:00:00,129.92999267578125,143.0399932861328,-1.1226935258361272,-1.008,1.0,1.4882531441620352
2024-01-29 00:00:00,128.19000244140625,142.86000061035156,-1.1207542441554696,-0.307,1.0,1.4953102872833914
2024-01-30 00:00:00,128.49000549316406,143.07000732421875,-1.1190383961542503,-0.23,1.0,1.4956388374394527
2024-01-31 00:00:00,126.33000183105469,141.0399932861328,-1.117750477220895,0.032,1.0,1.4975868435763082
2024-02-01 00:00:00,123.69000244140625,141.5,-1.118906852779231,1.359,0.0,1.5092619536767256
2024-02-02 00:00:00,124.33000183105469,140.08999633789062,-1.118755363975079,0.595,0.0,1.5092619536767256
2024-02-05 00:00:00,124.56999969482422,137.57000732421875,-1.1166123540429227,-0.426,0.0,1.5092619536767256
2024-02-06 00:00:00,126.01000213623047,139.88999938964844,-1.1149486202566024,0.04,0.0,1.5092619536767256
2024-02-07 00:00:00,127.61000061035156,139.3699951171875,-1.1119144865536752,-0.818,0.0,1.5092619536767256
2024-02-08 00:00:00,127.18000030517578,138.6300048828125,-1.1088413780335316,-0.712,0.0,1.5092619536767256
2024-02-09 00:00:00,127.36000061035156,139.5800018310547,-1.1065367526796968,-0.206,0.0,1.5092619536767256
2024-02-12 00:00:00,126.55000305175781,140.89999389648438,-1.1059968528506519,0.849,0.0,1.5092619536767256
