Date,x,y,hr,zScore,numUnits,cum rets
2022-04-28 00:00:00,74.05032348632812,126.5287857055664,-1.6972108264855266,-0.726,0.0,1.011461558255506
2022-04-29 00:00:00,70.90608978271484,123.76321411132812,-1.6987038008286746,0.414,0.0,1.011461558255506
2022-05-02 00:00:00,71.0131607055664,126.66413116455078,-1.7032635432313736,1.514,-1.0,1.011461558255506
2022-05-03 00:00:00,71.37335205078125,128.8108367919922,-1.709682791763456,1.886,-1.0,1.0071757346051173
2022-05-04 00:00:00,74.5662612915039,132.80442810058594,-1.7145301637232748,0.956,-1.0,1.014184049777466
2022-05-05 00:00:00,72.6972427368164,127.22499084472656,-1.716283553790323,-0.258,0.0,1.0241145023520573
2022-05-06 00:00:00,72.59989929199219,124.2853775024414,-1.714471753526199,-1.499,0.0,1.0241145023520573
2022-05-09 00:00:00,71.36360168457031,123.50823211669922,-1.713420956286479,-0.866,0.0,1.0241145023520573
2022-05-10 00:00:00,70.83793640136719,121.46823120117188,-1.7114450105638954,-1.321,0.0,1.0241145023520573
2022-05-11 00:00:00,70.96449279785156,120.74935913085938,-1.7084679239786442,-1.594,1.0,1.0241145023520573
2022-05-12 00:00:00,71.06184387207031,119.79734802246094,-1.704358578153554,-1.878,1.0,1.0206845616259594
2022-05-13 00:00:00,73.11581420898438,118.86478424072266,-1.6958095706819738,-3.006,1.0,1.0050036257393207
2022-05-16 00:00:00,72.36624908447266,117.02877044677734,-1.686409547426102,-2.622,1.0,1.0054861260689132
2022-05-17 00:00:00,73.4565200805664,120.77850341796875,-1.6794717365050011,-1.649,1.0,1.0154011381078636
2022-05-18 00:00:00,70.2928237915039,116.1447525024414,-1.6742433269728931,-1.224,1.0,1.019879169597292
2022-05-19 00:00:00,70.9476547241211,119.1659164428711,-1.671690398377669,-0.513,1.0,1.0287362828858952
2022-05-20 00:00:00,71.7784194946289,116.2613296508789,-1.6655043534364686,-1.65,1.0,1.0124122652012517
2022-05-23 00:00:00,72.19869995117188,119.30191802978516,-1.6614007102656372,-0.757,1.0,1.023433603992109
2022-05-24 00:00:00,73.78204345703125,117.99048614501953,-1.654027061263188,-1.721,1.0,1.0092771003160468
2022-05-25 00:00:00,71.86638641357422,119.8847885131836,-1.6516803880320083,-0.034,1.0,1.0312042789761946
2022-05-26 00:00:00,73.3813247680664,122.69223022460938,-1.6508525856427019,0.099,1.0,1.0327052714886955
2022-05-27 00:00:00,74.57372283935547,126.315673828125,-1.652079264412125,0.592,0.0,1.0389713367751001
2022-05-31 00:00:00,72.71670532226562,122.8768081665039,-1.6532585289044046,0.443,0.0,1.0389713367751001
2022-06-01 00:00:00,72.29644012451172,121.7887954711914,-1.6539428634231548,0.283,0.0,1.0389713367751001
2022-06-02 00:00:00,73.5376968383789,125.1111068725586,-1.6557610456272362,0.637,0.0,1.0389713367751001
2022-06-03 00:00:00,73.48883819580078,121.876220703125,-1.6544816901970152,-0.331,0.0,1.0389713367751001
2022-06-06 00:00:00,73.49859619140625,123.49851989746094,-1.6542893645542582,0.19,0.0,1.0389713367751001
2022-06-07 00:00:00,74.7594223022461,125.10137939453125,-1.6538458306316095,0.052,0.0,1.0389713367751001
2022-06-08 00:00:00,74.6128158569336,123.38194274902344,-1.6518954850315164,-0.344,0.0,1.0389713367751001
2022-06-09 00:00:00,74.2804946899414,120.44820404052734,-1.647384962936621,-0.953,0.0,1.0389713367751001
2022-06-10 00:00:00,71.63182067871094,112.58930969238281,-1.639162773634206,-1.828,1.0,1.0389713367751001
2022-06-13 00:00:00,69.49136352539062,110.06358337402344,-1.6317484583606636,-1.245,1.0,1.0456753956758402
2022-06-14 00:00:00,67.64412689208984,108.32470703125,-1.6262822945612454,-0.666,1.0,1.0532102250934046
2022-06-15 00:00:00,68.18168640136719,110.37443542480469,-1.6227682486236035,-0.166,1.0,1.0596128782199905
2022-06-16 00:00:00,66.41262817382812,105.40069580078125,-1.617736612097779,-0.724,1.0,1.0513023465014484
2022-06-17 00:00:00,66.3442153930664,106.87725830078125,-1.6143345503776165,-0.088,1.0,1.0597748757125467
2022-06-21 00:00:00,68.2892074584961,107.44070434570312,-1.608844025349921,-0.791,1.0,1.0496441651715016
2022-06-22 00:00:00,67.20431518554688,109.51957702636719,-1.6072309494059125,0.732,0.0,1.067722852355069
2022-06-23 00:00:00,67.03815460205078,111.09329986572266,-1.6084602216502062,1.496,0.0,1.067722852355069
2022-06-24 00:00:00,69.25679779052734,117.5533447265625,-1.6132141748062865,2.328,-1.0,1.067722852355069
2022-06-27 00:00:00,68.33805847167969,117.83505249023438,-1.6202219508417266,2.462,-1.0,1.0621009360336018
2022-06-28 00:00:00,68.21100616455078,115.863037109375,-1.6253932542066178,1.633,-1.0,1.0714463097538278
2022-06-29 00:00:00,68.20122528076172,113.86187744140625,-1.6277416908358637,0.892,-1.0,1.0809868099518916
2022-06-30 00:00:00,69.07109069824219,111.07386016845703,-1.6249358508371,-0.4,0.0,1.0989445006809564
2022-07-01 00:00:00,70.27326965332031,114.49333190917969,-1.6227421009744614,0.107,0.0,1.0989445006809564
2022-07-05 00:00:00,69.75526428222656,115.36762237548828,-1.6226270703977765,0.622,0.0,1.0989445006809564
2022-07-06 00:00:00,69.64774322509766,115.98931884765625,-1.6237983817205042,0.82,0.0,1.0989445006809564
2022-07-07 00:00:00,68.50421905517578,115.69789123535156,-1.6267939226335868,1.224,0.0,1.0989445006809564
2022-07-08 00:00:00,68.30874633789062,114.50303649902344,-1.6290607765271792,0.812,0.0,1.0989445006809564
2022-07-11 00:00:00,67.43888092041016,110.90872192382812,-1.628739091944783,0.049,0.0,1.0989445006809564
2022-07-12 00:00:00,67.2824935913086,112.71559143066406,-1.6300304899649183,0.697,0.0,1.0989445006809564
2022-07-13 00:00:00,66.85244750976562,112.40473175048828,-1.6319949608051965,0.747,0.0,1.0989445006809564
2022-07-14 00:00:00,67.4291000366211,111.55958557128906,-1.632099756092839,0.043,0.0,1.0989445006809564
2022-07-15 00:00:00,67.9373550415039,113.4636001586914,-1.632915628789213,0.417,0.0,1.0989445006809564
2022-07-18 00:00:00,67.39978790283203,111.6275863647461,-1.6328243803552398,0.053,0.0,1.0989445006809564
2022-07-19 00:00:00,70.21463012695312,116.3487548828125,-1.6326711447786753,0.122,0.0,1.0989445006809564
2022-07-20 00:00:00,71.02584075927734,116.6693344116211,-1.6314646875523409,-0.211,0.0,1.0989445006809564
2022-07-21 00:00:00,71.29949951171875,119.43792724609375,-1.632547196835132,0.643,0.0,1.0989445006809564
2022-07-22 00:00:00,70.27326965332031,124.08139038085938,-1.6406423800459409,2.52,-1.0,1.0989445006809564
2022-07-25 00:00:00,70.75218200683594,123.2459487915039,-1.6479676478047616,1.644,-1.0,1.1078646771682554
2022-07-26 00:00:00,71.07471466064453,122.61451721191406,-1.653362855971995,1.078,-1.0,1.1143046820834694
2022-07-27 00:00:00,74.71056365966797,123.30423736572266,-1.6524023885328407,-0.619,0.0,1.1355803440748482
2022-07-28 00:00:00,75.11126708984375,126.63626098632812,-1.6529148021851556,0.214,0.0,1.1355803440748482
2022-07-29 00:00:00,76.40140533447266,125.5968017578125,-1.6504374524864356,-0.784,0.0,1.1355803440748482
2022-08-01 00:00:00,76.5089111328125,125.61624145507812,-1.6473774354379547,-0.861,0.0,1.1355803440748482
2022-08-02 00:00:00,75.70747375488281,123.03223419189453,-1.6431602788469077,-1.259,0.0,1.1355803440748482
2022-08-03 00:00:00,77.43743133544922,124.57682800292969,-1.6377314899711028,-1.561,1.0,1.1355803440748482
2022-08-04 00:00:00,77.70130920410156,124.46996307373047,-1.631963398109428,-1.53,1.0,1.1352188377654122
2022-08-05 00:00:00,77.525390625,123.7219467163086,-1.6261404601109988,-1.523,1.0,1.135180813161596
2022-08-08 00:00:00,77.48628997802734,124.62538146972656,-1.6217531831430416,-1.045,1.0,1.1404026631597222
2022-08-09 00:00:00,77.07579040527344,124.15682983398438,-1.6182061682970876,-0.922,1.0,1.1422933887091296
2022-08-10 00:00:00,78.09226989746094,130.35540771484375,-1.6196529725595106,0.643,0.0,1.159583369119786
2022-08-11 00:00:00,78.77641296386719,130.16017150878906,-1.620676213384726,0.158,0.0,1.159583369119786
2022-08-12 00:00:00,79.90040588378906,132.31747436523438,-1.6218637724763527,0.284,0.0,1.159583369119786
2022-08-15 00:00:00,79.7049331665039,133.13742065429688,-1.6241058612115356,0.71,0.0,1.159583369119786
2022-08-16 00:00:00,79.48014068603516,133.93788146972656,-1.6275143357989703,1.067,0.0,1.159583369119786
2022-08-17 00:00:00,78.75688934326172,130.98989868164062,-1.6291353347374908,0.329,0.0,1.159583369119786
2022-08-18 00:00:00,78.87459564208984,130.2968292236328,-1.6294183068673647,-0.059,0.0,1.159583369119786
2022-08-19 00:00:00,77.89369201660156,128.79356384277344,-1.6295158886845929,-0.041,0.0,1.159583369119786
2022-08-22 00:00:00,75.85340881347656,124.19588470458984,-1.6283252754150481,-0.495,0.0,1.159583369119786
2022-08-23 00:00:00,75.43162536621094,124.60586547851562,-1.628049292810964,-0.036,0.0,1.159583369119786
2022-08-24 00:00:00,75.89263916015625,124.95728302001953,-1.6275776917164018,-0.151,0.0,1.159583369119786
2022-08-25 00:00:00,76.68718719482422,129.00831604003906,-1.6298055421461854,0.882,0.0,1.159583369119786
2022-08-26 00:00:00,73.79351043701172,123.03426361083984,-1.631153868845944,0.317,0.0,1.159583369119786
2022-08-29 00:00:00,72.65564727783203,122.93665313720703,-1.6339701846721368,0.919,0.0,1.159583369119786
2022-08-30 00:00:00,71.46876525878906,124.73275756835938,-1.640570333253006,2.036,-1.0,1.159583369119786
2022-08-31 00:00:00,70.84098815917969,123.95184326171875,-1.6477188686600948,1.782,-1.0,1.1606528946507493
2022-09-01 00:00:00,71.33142852783203,121.57002258300781,-1.6513271074043396,0.543,-1.0,1.1750549965625225
2022-09-02 00:00:00,70.35052490234375,120.80863952636719,-1.6548474528872774,0.725,-1.0,1.1724804629106416
2022-09-06 00:00:00,70.70365142822266,120.74028778076172,-1.6574622636060519,0.411,-1.0,1.1760008375517204
2022-09-07 00:00:00,72.00825500488281,124.79133605957031,-1.661609995245992,0.915,-1.0,1.1694960108492092
2022-09-08 00:00:00,71.51780700683594,124.71324157714844,-1.6665147184483908,1.008,-1.0,1.1679131252706105
2022-09-09 00:00:00,71.99845886230469,125.05489349365234,-1.670765783576897,0.839,-1.0,1.1710329115050475
2022-09-12 00:00:00,72.39080810546875,128.442138671875,-1.6773313040644702,1.647,-1.0,1.1620023006825102
2022-09-13 00:00:00,69.76199340820312,121.52122497558594,-1.681369550148601,0.65,-1.0,1.1736984428578892
2022-09-14 00:00:00,68.5162353515625,117.29448699951172,-1.682464713311664,-0.181,-1.0,1.1831888704317601
2022-09-15 00:00:00,67.6137924194336,117.56780242919922,-1.6847057872259676,0.411,-1.0,1.1761034353741409
2022-09-16 00:00:00,66.50538635253906,114.67839813232422,-1.6859977116410332,-0.031,-1.0,1.1809885994115157
2022-09-19 00:00:00,66.94678497314453,116.38666534423828,-1.6879981588079025,0.244,-1.0,1.1773697109873662
2022-09-20 00:00:00,66.32881927490234,113.8779525756836,-1.6885104610079005,-0.383,0.0,1.1840086446980096
2022-09-21 00:00:00,65.75007629394531,110.59807586669922,-1.6862931500067417,-1.32,0.0,1.1840086446980096
2022-09-22 00:00:00,64.20024871826172,109.2509765625,-1.68494463832743,-0.856,0.0,1.1840086446980096
2022-09-23 00:00:00,64.5239486694336,109.64144897460938,-1.6837052377237056,-1.012,0.0,1.1840086446980096
2022-09-26 00:00:00,64.12178039550781,108.51885986328125,-1.6821004655847096,-1.252,0.0,1.1840086446980096
2022-09-27 00:00:00,63.8863525390625,108.41149139404297,-1.6808192037268823,-1.131,0.0,1.1840086446980096
2022-09-28 00:00:00,64.51412963867188,110.59807586669922,-1.680885056640778,-0.514,0.0,1.1840086446980096
2022-09-29 00:00:00,63.26838684082031,108.94837951660156,-1.6817186038992415,-0.311,0.0,1.1840086446980096
2022-09-30 00:00:00,62.581756591796875,108.05032348632812,-1.6829460435132502,-0.217,0.0,1.1840086446980096
2022-10-03 00:00:00,64.19044494628906,111.46685028076172,-1.684941786027973,0.092,0.0,1.1840086446980096
2022-10-04 00:00:00,65.76970672607422,116.30856323242188,-1.6893073754858312,1.061,0.0,1.1840086446980096
2022-10-05 00:00:00,66.14244842529297,117.36282348632812,-1.6943626644721421,1.051,0.0,1.1840086446980096
2022-10-06 00:00:00,65.52448272705078,114.92242431640625,-1.6977320401539318,0.202,0.0,1.1840086446980096
2022-10-07 00:00:00,64.01388549804688,111.64256286621094,-1.69971992020149,-0.246,0.0,1.1840086446980096
2022-10-10 00:00:00,63.768653869628906,108.10889434814453,-1.697913781640706,-1.749,1.0,1.1840086446980096
2022-10-11 00:00:00,63.51362228393555,108.11865234375,-1.6958276746724807,-1.404,1.0,1.1866740959817577
2022-10-12 00:00:00,63.34686279296875,107.07416534423828,-1.692993147030258,-1.62,1.0,1.1839579085623215
2022-10-13 00:00:00,63.768653869628906,109.54383087158203,-1.692067947931938,-0.711,1.0,1.1923029020607887
2022-10-14 00:00:00,62.89564895629883,107.69890594482422,-1.6912526210196643,-0.834,1.0,1.1908246061639
2022-10-17 00:00:00,64.12178039550781,110.60784149169922,-1.6914217736655819,-0.417,1.0,1.1945878355998363
2022-10-18 00:00:00,65.43618774414062,113.95603942871094,-1.6930285726851786,0.136,1.0,1.1991256645861714
2022-10-19 00:00:00,65.01439666748047,111.90611267089844,-1.6934116074746572,-0.516,1.0,1.1929963338714833
2022-10-20 00:00:00,63.51362228393555,105.82469940185547,-1.6896431803525955,-2.101,1.0,1.1775105632495353
2022-10-21 00:00:00,65.51466369628906,109.9050064086914,-1.6859166357710027,-1.505,1.0,1.1817918123101627
2022-10-24 00:00:00,65.79912567138672,109.2802734375,-1.6812720681672328,-1.753,1.0,1.1781597976144318
2022-10-25 00:00:00,67.53532409667969,110.26618194580078,-1.67466199563792,-2.23,1.0,1.171503876283326
2022-10-26 00:00:00,67.03506469726562,110.12952423095703,-1.6688474079433466,-1.631,1.0,1.17641777236935
2022-10-27 00:00:00,68.67318725585938,109.68048095703125,-1.6602255417844443,-2.482,1.0,1.1648361694695493
2022-10-28 00:00:00,70.32109069824219,111.43756103515625,-1.6505783345955505,-2.432,1.0,1.1635157361826292
2022-10-31 00:00:00,69.29114532470703,111.45708465576172,-1.643299914817277,-1.419,1.0,1.1733853767977305
2022-11-01 00:00:00,70.14453125,111.28138732910156,-1.6354409341038225,-1.697,1.0,1.1688419782413204
2022-11-02 00:00:00,68.8693618774414,107.45486450195312,-1.6262055734766756,-1.948,1.0,1.1638065615190927
2022-11-03 00:00:00,68.8693618774414,107.09368133544922,-1.6169681530711828,-1.701,1.0,1.1650653758740286
2022-11-04 00:00:00,71.82189178466797,112.7065658569336,-1.6093269877975973,-1.131,1.0,1.1711433104013802
2022-11-07 00:00:00,72.33195495605469,113.5655746459961,-1.6027015902276995,-0.893,1.0,1.1733977596358942
2022-11-08 00:00:00,71.7630386352539,113.68270874023438,-1.5979150797850192,-0.394,1.0,1.1794078668314762
2022-11-09 00:00:00,71.2235336303711,112.05362701416016,-1.5931041281255574,-0.518,1.0,1.1775262363038104
2022-11-10 00:00:00,74.15644073486328,122.48566436767578,-1.5946837060153047,1.414,0.0,1.200964113129187
2022-11-11 00:00:00,75.89263916015625,127.6673355102539,-1.6000263347911512,1.929,-1.0,1.200964113129187
2022-11-14 00:00:00,76.28500366210938,125.57699584960938,-1.6029134274190013,0.94,-1.0,1.2128193190943533
2022-11-15 00:00:00,77.2070541381836,127.08831787109375,-1.6050680730419673,0.882,-1.0,1.2133491722243486
2022-11-16 00:00:00,76.90296936035156,126.58782958984375,-1.6068728113487525,0.826,-1.0,1.2139535876805272
2022-11-17 00:00:00,76.15471649169922,124.30121612548828,-1.6073505010778946,0.481,-1.0,1.2184959704023388
2022-11-18 00:00:00,76.55838775634766,126.0775146484375,-1.6086592350567803,0.815,-1.0,1.214374288460692
2022-11-21 00:00:00,76.98173522949219,126.6467056274414,-1.609918225798737,0.794,-1.0,1.2152073529457899
2022-11-22 00:00:00,77.04080963134766,129.53196716308594,-1.6138749242084847,1.616,-1.0,1.2054174346724635
2022-11-23 00:00:00,76.89312744140625,130.58203125,-1.619350570449628,1.815,-1.0,1.2020173224091826
2022-11-25 00:00:00,77.45431518554688,130.87644958496094,-1.6240750391621248,1.447,-1.0,1.2058365424979567
2022-11-28 00:00:00,75.16031646728516,127.8734359741211,-1.6289966632677142,1.455,-1.0,1.2044274795319079
2022-11-29 00:00:00,75.69197845458984,129.3749237060547,-1.6342169487240177,1.433,-1.0,1.2034780328982484
2022-11-30 00:00:00,76.88328552246094,132.70179748535156,-1.6404664641111883,1.574,-1.0,1.2000025882503043
2022-12-01 00:00:00,77.61185455322266,132.4466552734375,-1.64498168179892,1.027,-1.0,1.206925517284239
2022-12-02 00:00:00,78.51763916015625,134.7430877685547,-1.6495914274568617,1.097,-1.0,1.2052435432275328
2022-12-05 00:00:00,77.26726531982422,132.0835418701172,-1.6532591225808515,0.834,-1.0,1.2086317010950407
2022-12-06 00:00:00,77.9662857055664,129.5810089111328,-1.6528426390239659,-0.117,-1.0,1.2226605850350893
2022-12-07 00:00:00,77.77922058105469,127.0294418334961,-1.6494540369055841,-0.621,0.0,1.2304108363839916
2022-12-08 00:00:00,78.50778198242188,127.93231201171875,-1.6454630362999334,-0.62,0.0,1.2304108363839916
2022-12-09 00:00:00,77.24756622314453,127.98137664794922,-1.6437553398616842,-0.029,0.0,1.2304108363839916
2022-12-12 00:00:00,79.29542541503906,129.85581970214844,-1.6411578534060065,-0.384,0.0,1.2304108363839916
2022-12-13 00:00:00,79.69908905029297,131.5732421875,-1.6396308672443358,-0.098,0.0,1.2304108363839916
2022-12-14 00:00:00,79.0099105834961,130.29742431640625,-1.638288279489707,-0.132,0.0,1.2304108363839916
2022-12-15 00:00:00,77.60199737548828,126.37191772460938,-1.6355067348015095,-0.571,0.0,1.2304108363839916
2022-12-16 00:00:00,77.38540649414062,123.8203353881836,-1.6305210965247818,-1.143,0.0,1.2304108363839916
2022-12-19 00:00:00,76.66669464111328,123.29039001464844,-1.6261179097678267,-0.871,0.0,1.2304108363839916
2022-12-20 00:00:00,76.71591186523438,122.43659973144531,-1.6212420900444164,-1.069,0.0,1.2304108363839916
2022-12-21 00:00:00,77.80875396728516,124.78208923339844,-1.6172026913273565,-0.869,0.0,1.2304108363839916
2022-12-22 00:00:00,76.93251037597656,123.51611328125,-1.6137768053244257,-0.81,0.0,1.2304108363839916
2022-12-23 00:00:00,77.14911651611328,124.360107421875,-1.6112061508880997,-0.629,0.0,1.2304108363839916
2022-12-27 00:00:00,77.29679870605469,124.06568145751953,-1.608472795462886,-0.78,0.0,1.2304108363839916
2022-12-28 00:00:00,76.20394134521484,121.95572662353516,-1.6055697128315216,-0.837,0.0,1.2304108363839916
2022-12-29 00:00:00,77.84813690185547,124.04605102539062,-1.6023150461682456,-0.958,0.0,1.2304108363839916
2022-12-30 00:00:00,77.09988403320312,123.3983383178711,-1.5997790465286117,-0.649,0.0,1.2304108363839916
2023-01-03 00:00:00,77.8973617553711,124.47785949707031,-1.597379915341944,-0.607,0.0,1.2304108363839916
2023-01-04 00:00:00,79.52186584472656,127.54957580566406,-1.5956566900631775,-0.351,0.0,1.2304108363839916
2023-01-05 00:00:00,78.89175415039062,120.81732940673828,-1.588634803279583,-2.061,1.0,1.2304108363839916
2023-01-06 00:00:00,80.58517456054688,126.10694885253906,-1.583689351142463,-0.956,1.0,1.2422262968097222
2023-01-09 00:00:00,80.2110595703125,126.47004699707031,-1.5804557603590836,-0.51,1.0,1.247023917401794
2023-01-10 00:00:00,80.40796661376953,127.36311340332031,-1.5783608714524273,-0.226,1.0,1.2499746857897227
2023-01-11 00:00:00,80.63441467285156,129.6300811767578,-1.5784847085841425,0.438,0.0,1.2573685726522144
2023-01-12 00:00:00,81.61895751953125,129.16883850097656,-1.5770722045887107,-0.18,0.0,1.2573685726522144
2023-01-13 00:00:00,81.96354675292969,129.934326171875,-1.5757041873074584,-0.005,0.0,1.2573685726522144
2023-01-17 00:00:00,81.6977310180664,128.1874542236328,-1.5731845187120423,-0.386,0.0,1.2573685726522144
2023-01-18 00:00:00,80.52610778808594,125.40035247802734,-1.5697525783877153,-0.608,0.0,1.2573685726522144
2023-01-19 00:00:00,78.41917419433594,121.29821014404297,-1.5656566622759553,-0.771,0.0,1.2573685726522144
2023-01-20 00:00:00,79.56124877929688,128.56039428710938,-1.566980065214641,1.837,-1.0,1.2573685726522144
2023-01-23 00:00:00,80.09290313720703,127.8734359741211,-1.5677395029037495,1.169,-1.0,1.2636062881483552
2023-01-24 00:00:00,80.8411636352539,128.53094482421875,-1.5678448304832717,1.058,-1.0,1.2656592846435488
2023-01-25 00:00:00,79.70893096923828,125.76345825195312,-1.5668755529998817,0.647,-1.0,1.2693099298887325
2023-01-26 00:00:00,79.82708740234375,125.32183837890625,-1.5651864460693214,0.332,-1.0,1.271275516862676
2023-01-27 00:00:00,79.94522094726562,124.97835540771484,-1.5629913560763804,0.076,-1.0,1.2726874888267226
2023-01-30 00:00:00,79.70893096923828,125.27278137207031,-1.5615052100133564,0.557,-1.0,1.2695553979837713
2023-01-31 00:00:00,80.95931243896484,127.91267395019531,-1.5609173767281919,1.026,-1.0,1.266664899546043
2023-02-01 00:00:00,83.25331115722656,129.55157470703125,-1.558692912573037,-0.134,-1.0,1.273439007918894
2023-02-02 00:00:00,82.56412506103516,131.92649841308594,-1.559627469495774,1.933,-1.0,1.2605044204521376
2023-02-03 00:00:00,83.4206771850586,128.29542541503906,-1.5563516720186528,-0.938,0.0,1.2786881047206806
2023-02-06 00:00:00,82.37705993652344,127.0294418334961,-1.5529258381897244,-0.535,0.0,1.2786881047206806
2023-02-07 00:00:00,82.33767700195312,128.8253631591797,-1.5514975756286329,0.634,0.0,1.2786881047206806
2023-02-08 00:00:00,82.23921966552734,127.95195007324219,-1.549857834200226,0.232,0.0,1.2786881047206806
2023-02-09 00:00:00,81.53033447265625,126.46025085449219,-1.5479381950626991,0.041,0.0,1.2786881047206806
2023-02-10 00:00:00,81.93401336669922,123.87922668457031,-1.5430975504743614,-1.713,1.0,1.2786881047206806
2023-02-13 00:00:00,83.07608032226562,126.34247589111328,-1.5387792715498247,-1.013,1.0,1.2828571249681753
2023-02-14 00:00:00,83.02686309814453,127.36311340332031,-1.535927586438164,-0.174,1.0,1.2880874496153634
2023-02-15 00:00:00,83.26314544677734,128.59963989257812,-1.5343805749994572,0.432,0.0,1.2919977113912318
2023-02-16 00:00:00,82.58147430419922,127.34735870361328,-1.5329918973277241,0.353,0.0,1.2919977113912318
2023-02-17 00:00:00,83.73735809326172,128.0967559814453,-1.5307831592659111,-0.182,0.0,1.2919977113912318
2023-02-21 00:00:00,82.057861328125,124.43853759765625,-1.5275876115581293,-0.676,0.0,1.2919977113912318
2023-02-22 00:00:00,82.3641357421875,126.87406158447266,-1.5263064237369464,0.591,0.0,1.2919977113912318
2023-02-23 00:00:00,82.95689392089844,126.38104248046875,-1.524152711371506,-0.151,0.0,1.2919977113912318
2023-02-24 00:00:00,82.62098693847656,127.89955139160156,-1.5239125007656005,1.144,0.0,1.2919977113912318
2023-02-27 00:00:00,82.98652648925781,129.7730255126953,-1.5252542294055946,1.847,-1.0,1.2919977113912318
2023-02-28 00:00:00,83.59905242919922,130.2167510986328,-1.526308400645723,1.356,-1.0,1.2942421914006685
2023-03-01 00:00:00,84.20169067382812,131.37042236328125,-1.527446669302137,1.362,-1.0,1.293711330669234
2023-03-02 00:00:00,84.63638305664062,132.9579315185547,-1.5293673049219283,1.777,-1.0,1.2908112173677546
2023-03-03 00:00:00,85.88117980957031,135.5413818359375,-1.5318978492465047,1.889,-1.0,1.2890801493409212
2023-03-06 00:00:00,85.60455322265625,131.7747039794922,-1.5312294968163942,-0.066,-1.0,1.3015802013088837
2023-03-07 00:00:00,84.1127700805664,129.0828094482422,-1.5296895731043734,-0.246,0.0,1.3026591761122417
2023-03-08 00:00:00,84.31036376953125,129.37863159179688,-1.5281156668684128,-0.201,0.0,1.3026591761122417
2023-03-09 00:00:00,83.13471984863281,125.6218032836914,-1.5248458246014582,-1.248,0.0,1.3026591761122417
2023-03-10 00:00:00,81.15885162353516,124.24134063720703,-1.5230442228430277,-0.1,0.0,1.3026591761122417
2023-03-13 00:00:00,80.95137786865234,122.96934509277344,-1.5207391701293356,-0.56,0.0,1.3026591761122417
2023-03-14 00:00:00,82.42340850830078,127.35723876953125,-1.520514086515253,0.858,0.0,1.3026591761122417
2023-03-15 00:00:00,80.18079376220703,123.67929077148438,-1.5204156814314913,0.666,0.0,1.3026591761122417
2023-03-16 00:00:00,80.52656555175781,124.78366088867188,-1.5208855044717169,0.967,0.0,1.3026591761122417
2023-03-17 00:00:00,79.07430267333984,120.78032684326172,-1.5197436594387215,-0.139,0.0,1.3026591761122417
2023-03-20 00:00:00,80.79331970214844,123.56096649169922,-1.518560485451377,0.03,0.0,1.3026591761122417
2023-03-21 00:00:00,81.3169174194336,124.83296203613281,-1.517905086849659,0.375,0.0,1.3026591761122417
2023-03-22 00:00:00,79.66706848144531,121.88469696044922,-1.516974934607927,0.114,0.0,1.3026591761122417
2023-03-23 00:00:00,79.31140899658203,121.78609466552734,-1.516478095687493,0.472,0.0,1.3026591761122417
2023-03-24 00:00:00,79.52876281738281,123.68916320800781,-1.517573988913546,1.393,0.0,1.3026591761122417
2023-03-27 00:00:00,80.01284790039062,124.24134063720703,-1.5186993317457131,1.141,0.0,1.3026591761122417
2023-03-28 00:00:00,80.73403930664062,124.45826721191406,-1.5189181428136607,0.514,0.0,1.3026591761122417
2023-03-29 00:00:00,81.83065032958984,126.4500732421875,-1.5192665943183263,0.68,0.0,1.3026591761122417
2023-03-30 00:00:00,82.12702178955078,128.01788330078125,-1.5206626892738508,1.272,0.0,1.3026591761122417
2023-03-31 00:00:00,83.38170623779297,131.71554565429688,-1.523815859746937,2.195,-1.0,1.3026591761122417
2023-04-03 00:00:00,83.18411254882812,138.08535766601562,-1.533287366969405,4.22,-1.0,1.2805117595300093
2023-04-04 00:00:00,79.65718841552734,136.38938903808594,-1.5466285571814347,3.899,-1.0,1.2703068083316524
2023-04-05 00:00:00,78.4321517944336,137.01058959960938,-1.5620577486716882,3.39,-1.0,1.2652755906901696
2023-04-06 00:00:00,77.54299926757812,136.1428680419922,-1.5772574291374175,2.723,-1.0,1.2678193999636262
2023-04-10 00:00:00,78.17528533935547,136.4091033935547,-1.5906506161721716,2.058,-1.0,1.2746381905950952
2023-04-11 00:00:00,78.80756378173828,137.35569763183594,-1.602695727069199,1.685,-1.0,1.2784627554520913
2023-04-12 00:00:00,79.7559814453125,136.0836944580078,-1.6109602950010433,0.85,-1.0,1.2915073582890433
2023-04-13 00:00:00,80.18079376220703,137.3458251953125,-1.6184692946165322,0.796,-1.0,1.291598339696293
2023-04-14 00:00:00,80.27958679199219,136.4879913330078,-1.6243059533880846,0.431,-1.0,1.2971673412508649
2023-04-17 00:00:00,81.38607025146484,138.9629364013672,-1.6300361043871567,0.457,-1.0,1.2963893466099745
2023-04-18 00:00:00,81.29716491699219,139.63345336914062,-1.6360724310265844,0.503,-1.0,1.2951984067631859
2023-04-19 00:00:00,81.50463104248047,138.5882568359375,-1.6403829887833312,0.097,-1.0,1.301573871376668
2023-04-20 00:00:00,81.7516098022461,139.47569274902344,-1.6445040843898862,0.119,-1.0,1.3010430894376608
2023-04-21 00:00:00,81.73184967041016,139.998291015625,-1.6487934126412824,0.157,-1.0,1.300298726295709
2023-04-24 00:00:00,82.04800415039062,140.96461486816406,-1.6531972540674518,0.147,-1.0,1.299996043116218
2023-04-25 00:00:00,81.65282440185547,138.46990966796875,-1.6555395317097252,-0.343,0.0,1.3074239738797468
2023-04-26 00:00:00,80.89210510253906,135.7188720703125,-1.6559270770394878,-0.711,0.0,1.3074239738797468
2023-04-27 00:00:00,84.8438491821289,136.99085998535156,-1.6509763066591334,-1.794,1.0,1.3074239738797468
2023-04-28 00:00:00,84.27084350585938,138.3022918701172,-1.647610134549835,-1.194,1.0,1.3165928034929992
2023-05-01 00:00:00,84.91300201416016,137.8092803955078,-1.6433452907396937,-1.433,1.0,1.3123061807763317
2023-05-02 00:00:00,85.2192611694336,137.65151977539062,-1.6386569758085405,-1.426,1.0,1.3113630917778574
2023-05-03 00:00:00,84.50794219970703,136.4091033935547,-1.634206687194056,-1.309,1.0,1.3124533011161565
2023-05-04 00:00:00,84.27084350585938,133.60873413085938,-1.627909097462359,-1.61,1.0,1.3055026384544723
2023-05-05 00:00:00,84.92288208007812,136.10342407226562,-1.6231294695326928,-1.201,1.0,1.3122161582644083
2023-05-08 00:00:00,84.72529602050781,136.74435424804688,-1.6198893832776657,-0.937,1.0,1.3167278388783874
2023-05-09 00:00:00,84.41902923583984,135.83311462402344,-1.616788047145986,-0.947,1.0,1.3161648648786133
2023-05-10 00:00:00,84.41902923583984,135.5557861328125,-1.6136997048679314,-0.932,1.0,1.316103736516974
2023-05-11 00:00:00,83.52001190185547,135.93215942382812,-1.6125476785273207,-0.551,1.0,1.3232110836001623
2023-05-12 00:00:00,83.38170623779297,136.78396606445312,-1.6128110432972134,-0.338,1.0,1.3270924522053207
2023-05-15 00:00:00,83.4903793334961,139.2898712158203,-1.6154532940231248,0.068,1.0,1.3347886786876288
2023-05-16 00:00:00,81.93932342529297,138.0022430419922,-1.6194293675584144,0.224,0.0,1.3380847359083559
2023-05-17 00:00:00,82.73954010009766,141.0529022216797,-1.6249611953703524,0.454,0.0,1.3380847359083559
2023-05-18 00:00:00,83.82078552246094,141.2113800048828,-1.6288529618794343,0.065,0.0,1.3380847359083559
2023-05-19 00:00:00,83.88030242919922,141.04299926757812,-1.6319130559697224,-0.035,0.0,1.3380847359083559
2023-05-22 00:00:00,83.4041519165039,139.33937072753906,-1.63373443617511,-0.21,0.0,1.3380847359083559
2023-05-23 00:00:00,81.57894134521484,135.5756072998047,-1.6344801052648792,-0.333,0.0,1.3380847359083559
2023-05-24 00:00:00,80.44810485839844,132.138671875,-1.6335109719625496,-0.619,0.0,1.3380847359083559
2023-05-25 00:00:00,80.77545928955078,131.7721710205078,-1.631478292837703,-0.762,0.0,1.3380847359083559
2023-05-26 00:00:00,81.13256072998047,132.45559692382812,-1.6295053072357524,-0.661,0.0,1.3380847359083559
2023-05-30 00:00:00,80.57707214355469,133.06971740722656,-1.6291059306840834,-0.171,0.0,1.3380847359083559
2023-05-31 00:00:00,78.87089538574219,130.0388641357422,-1.6287746428765744,-0.193,0.0,1.3380847359083559
2023-06-01 00:00:00,80.85481262207031,133.69369506835938,-1.628875612717174,-0.01,0.0,1.3380847359083559
2023-06-02 00:00:00,84.91193389892578,138.2498779296875,-1.6271264553749205,-0.598,0.0,1.3380847359083559
2023-06-05 00:00:00,83.85054016113281,136.60568237304688,-1.6252736766281752,-0.473,0.0,1.3380847359083559
2023-06-06 00:00:00,84.83258056640625,137.89329528808594,-1.6232639926060277,-0.476,0.0,1.3380847359083559
2023-06-07 00:00:00,86.48916625976562,140.49822998046875,-1.621313925923759,-0.404,0.0,1.3380847359083559
2023-06-08 00:00:00,85.39799499511719,139.82470703125,-1.6205511622814284,0.076,0.0,1.3380847359083559
2023-06-09 00:00:00,84.9714584350586,138.33900451660156,-1.6193181993394001,-0.147,0.0,1.3380847359083559
2023-06-12 00:00:00,85.80470275878906,138.6559600830078,-1.6171505133858801,-0.443,0.0,1.3380847359083559
2023-06-13 00:00:00,86.49906921386719,139.97329711914062,-1.6151798912917916,-0.255,0.0,1.3380847359083559
2023-06-14 00:00:00,86.80658721923828,139.35919189453125,-1.6123831637818036,-0.595,0.0,1.3380847359083559
2023-06-15 00:00:00,87.82830810546875,139.92376708984375,-1.6086854842018616,-0.969,0.0,1.3380847359083559
2023-06-16 00:00:00,87.90766143798828,141.71652221679688,-1.6066684586155504,-0.173,0.0,1.3380847359083559
2023-06-20 00:00:00,86.38004302978516,140.68641662597656,-1.606398786674276,0.428,0.0,1.3380847359083559
2023-06-21 00:00:00,86.30068969726562,140.98355102539062,-1.606828981025343,0.559,0.0,1.3380847359083559
2023-06-22 00:00:00,85.37816619873047,139.4285430908203,-1.6072752296385793,0.465,0.0,1.3380847359083559
2023-06-23 00:00:00,85.67575073242188,137.5664520263672,-1.605555384653501,-0.672,0.0,1.3380847359083559
2023-06-26 00:00:00,86.41972351074219,139.73558044433594,-1.6044997070799911,-0.176,0.0,1.3380847359083559
2023-06-27 00:00:00,87.03472900390625,143.0536346435547,-1.6057596068685962,0.949,0.0,1.3380847359083559
2023-06-28 00:00:00,86.80658721923828,141.93441772460938,-1.6066167848129098,0.467,0.0,1.3380847359083559
2023-06-29 00:00:00,87.89775085449219,143.98468017578125,-1.607608146337435,0.538,0.0,1.3380847359083559
2023-06-30 00:00:00,88.29452514648438,146.88677978515625,-1.610590876416254,1.533,-1.0,1.3380847359083559
2023-07-03 00:00:00,87.89775085449219,147.64942932128906,-1.6149236016922475,1.908,-1.0,1.334559658875781
2023-07-05 00:00:00,86.83634185791016,144.78697204589844,-1.6180914268520041,1.197,-1.0,1.3395490194828312
2023-07-06 00:00:00,85.69558715820312,143.8460235595703,-1.621639463064576,1.523,-1.0,1.3374244881427324
2023-07-07 00:00:00,86.16181182861328,145.37135314941406,-1.625670941205388,1.836,-1.0,1.3359463537171454
2023-07-10 00:00:00,86.57843780517578,146.49057006835938,-1.6298657835961303,1.832,-1.0,1.3356725818787076
2023-07-11 00:00:00,86.72723388671875,149.1549530029297,-1.6359455573241055,2.537,-1.0,1.329162791248957
2023-07-12 00:00:00,87.99693298339844,150.22463989257812,-1.640939861946158,1.728,-1.0,1.3340740118944612
2023-07-13 00:00:00,88.34412384033203,150.06617736816406,-1.6446968059906761,1.183,-1.0,1.3376630764889677
2023-07-14 00:00:00,88.0068588256836,148.31304931640625,-1.6468703742807158,0.528,-1.0,1.3424021159113504
2023-07-17 00:00:00,87.82830810546875,149.75912475585938,-1.6501786676872567,1.109,-1.0,1.3374831976722434
2023-07-18 00:00:00,87.8183822631836,149.92750549316406,-1.6535723686422807,0.998,-1.0,1.3378669768283904
2023-07-19 00:00:00,87.37200164794922,148.8280792236328,-1.6563858289370903,0.693,-1.0,1.3399351820355496
2023-07-20 00:00:00,86.16181182861328,148.29324340820312,-1.66020716427592,1.13,-1.0,1.336020671680349
2023-07-21 00:00:00,86.54867553710938,147.9267578125,-1.6629898964005243,0.559,-1.0,1.3403022347102707
2023-07-24 00:00:00,86.52883911132812,144.47991943359375,-1.6623184032872302,-0.909,0.0,1.3519412666653725
2023-07-25 00:00:00,86.86610412597656,145.6090545654297,-1.6616521021669546,-0.654,0.0,1.3519412666653725
2023-07-26 00:00:00,90.0007095336914,144.78697204589844,-1.6556268970588979,-2.706,1.0,1.3519412666653725
2023-07-27 00:00:00,88.94922637939453,143.4201202392578,-1.6495720142547923,-2.158,1.0,1.3550865175802778
2023-07-28 00:00:00,89.326171875,144.02432250976562,-1.643988664255597,-1.834,1.0,1.3567406367871524
2023-07-31 00:00:00,90.22885131835938,142.5286865234375,-1.6362774514418894,-2.355,1.0,1.3488698311550402
2023-08-01 00:00:00,89.50472259521484,144.16297912597656,-1.6313757793534496,-1.27,1.0,1.3600970149753646
2023-08-02 00:00:00,88.67147827148438,140.41900634765625,-1.6251900835766755,-1.735,1.0,1.3536436966810677
2023-08-03 00:00:00,88.89962768554688,138.94320678710938,-1.6176489310772322,-1.948,1.0,1.349483932070461
2023-08-04 00:00:00,87.79855346679688,139.23043823242188,-1.6123325803309851,-1.202,1.0,1.3585125395678235
2023-08-07 00:00:00,89.47496032714844,141.89479064941406,-1.6077539047613771,-1.059,1.0,1.3598112474293393
2023-08-08 00:00:00,88.22509765625,141.96414184570312,-1.6055083230188163,-0.408,1.0,1.3678396571583173
2023-08-09 00:00:00,87.29264831542969,138.74038696289062,-1.6022694859003064,-0.776,1.0,1.3626568210631251
2023-08-10 00:00:00,87.07441711425781,138.75033569335938,-1.5994426641188129,-0.583,1.0,1.3648356423024248
2023-08-11 00:00:00,86.70738983154297,135.95443725585938,-1.594927657540042,-1.049,1.0,1.3582088476884546
2023-08-14 00:00:00,86.35028839111328,138.92942810058594,-1.593652761600691,-0.059,1.0,1.3714243159911739
2023-08-15 00:00:00,85.05081176757812,138.17323303222656,-1.5941667938938193,0.292,0.0,1.3760670977924376
2023-08-16 00:00:00,84.58458709716797,136.9494171142578,-1.5944984653105811,0.157,0.0,1.3760670977924376
2023-08-17 00:00:00,83.57869720458984,137.37725830078125,-1.5966030773306785,0.649,0.0,1.3760670977924376
2023-08-18 00:00:00,83.38947296142578,138.82992553710938,-1.6004241821098266,1.027,0.0,1.3760670977924376
2023-08-21 00:00:00,83.1803207397461,137.90460205078125,-1.603714167724696,0.811,0.0,1.3760670977924376
2023-08-22 00:00:00,82.61264038085938,137.66580200195312,-1.6072881831812968,0.905,0.0,1.3760670977924376
2023-08-23 00:00:00,83.50897979736328,137.1583709716797,-1.608880561133051,0.362,0.0,1.3760670977924376
2023-08-24 00:00:00,82.50308227539062,136.56137084960938,-1.6109583064865114,0.614,0.0,1.3760670977924376
2023-08-25 00:00:00,83.52890014648438,137.67575073242188,-1.6124737352244662,0.457,0.0,1.3760670977924376
2023-08-28 00:00:00,84.29576873779297,138.13343811035156,-1.613071187405823,0.278,0.0,1.3760670977924376
2023-08-29 00:00:00,85.1622314453125,140.2527618408203,-1.6141284043333353,0.503,0.0,1.3760670977924376
2023-08-30 00:00:00,85.3116226196289,141.32733154296875,-1.6159399418055667,0.727,0.0,1.3760670977924376
2023-08-31 00:00:00,85.20207214355469,141.04873657226562,-1.6176430771895705,0.654,0.0,1.3760670977924376
2023-09-01 00:00:00,85.81954193115234,141.2974853515625,-1.6185112852908314,0.431,0.0,1.3760670977924376
2023-09-05 00:00:00,84.00695037841797,135.7852783203125,-1.6168208821188723,-0.288,0.0,1.3760670977924376
2023-09-06 00:00:00,84.04678344726562,136.3623809814453,-1.615301047379639,-0.053,0.0,1.3760670977924376
2023-09-07 00:00:00,82.63256072998047,135.49673461914062,-1.6152212615969932,0.45,0.0,1.3760670977924376
2023-09-08 00:00:00,82.37361907958984,135.01914978027344,-1.6153338204737466,0.455,0.0,1.3760670977924376
2023-09-11 00:00:00,82.65247344970703,135.6658935546875,-1.6156504869989963,0.495,0.0,1.3760670977924376
2023-09-12 00:00:00,82.25410461425781,133.16847229003906,-1.614274344606097,-0.081,0.0,1.3760670977924376
2023-09-13 00:00:00,80.95939636230469,132.3326873779297,-1.6138680375766403,0.306,0.0,1.3760670977924376
2023-09-14 00:00:00,81.34780883789062,133.71571350097656,-1.614353667745821,0.514,0.0,1.3760670977924376
2023-09-15 00:00:00,80.79008483886719,133.12867736816406,-1.6152459196536422,0.557,0.0,1.3760670977924376
2023-09-18 00:00:00,81.0589828491211,131.82525634765625,-1.6145325034315465,-0.145,0.0,1.3760670977924376
2023-09-19 00:00:00,81.84577178955078,131.54666137695312,-1.6121589135285823,-0.725,0.0,1.3760670977924376
2023-09-20 00:00:00,81.36772155761719,130.14373779296875,-1.609089358779114,-0.973,0.0,1.3760670977924376
2023-09-21 00:00:00,80.60086059570312,127.64631652832031,-1.6049505711790244,-1.565,1.0,1.3760670977924376
2023-09-22 00:00:00,80.49130249023438,129.4770965576172,-1.6027995039050589,-0.583,1.0,1.3844998034748026
2023-09-25 00:00:00,80.62077331542969,131.38746643066406,-1.6027412432590562,0.235,0.0,1.3910521440196595
2023-09-26 00:00:00,78.967529296875,127.9647216796875,-1.602329121266863,-0.18,0.0,1.3910521440196595
2023-09-27 00:00:00,79.02728271484375,127.38762664794922,-1.6012533808483695,-0.548,0.0,1.3910521440196595
2023-09-28 00:00:00,80.14273071289062,129.90493774414062,-1.6008255339341377,-0.159,0.0,1.3910521440196595
2023-09-29 00:00:00,79.9833755493164,129.1487579345703,-1.6000725894986614,-0.521,0.0,1.3910521440196595
2023-10-02 00:00:00,79.17667388916016,128.7209014892578,-1.6001301735103632,0.011,0.0,1.3910521440196595
2023-10-03 00:00:00,79.07707977294922,128.0045166015625,-1.5998019026449986,-0.307,0.0,1.3910521440196595
2023-10-04 00:00:00,79.73439025878906,132.5515899658203,-1.6027301398806097,1.645,-1.0,1.3910521440196595
2023-10-05 00:00:00,78.8181381225586,130.67108154296875,-1.605633924072549,1.246,-1.0,1.3935436455062382
2023-10-06 00:00:00,79.21651458740234,132.46205139160156,-1.6094113077993735,1.796,-1.0,1.3902657890768801
2023-10-09 00:00:00,79.62483978271484,128.1139678955078,-1.6083218193102855,-1.168,0.0,1.4094654404998712
2023-10-10 00:00:00,79.97341918945312,129.6263427734375,-1.6073424056521712,-0.479,0.0,1.4094654404998712
2023-10-11 00:00:00,80.71041107177734,131.8551025390625,-1.607446986875108,0.218,0.0,1.4094654404998712
2023-10-12 00:00:00,80.11285400390625,129.40744018554688,-1.6063283526442396,-0.663,0.0,1.4094654404998712
2023-10-13 00:00:00,79.67463684082031,127.81547546386719,-1.6042318820681076,-1.082,0.0,1.4094654404998712
2023-10-16 00:00:00,80.18257141113281,129.6959991455078,-1.6031285495388443,-0.289,0.0,1.4094654404998712
2023-10-17 00:00:00,80.74028778076172,130.79046630859375,-1.6024781795816567,-0.094,0.0,1.4094654404998712
2023-10-18 00:00:00,78.52931213378906,127.13888549804688,-1.6018555064032902,-0.094,0.0,1.4094654404998712
2023-10-19 00:00:00,77.85208129882812,123.71614074707031,-1.5990589669699622,-1.471,0.0,1.4094654404998712
2023-10-20 00:00:00,77.21468353271484,124.09423828125,-1.5974014629513509,-0.39,0.0,1.4094654404998712
2023-10-23 00:00:00,76.59721374511719,123.06940460205078,-1.5960320374127175,-0.366,0.0,1.4094654404998712
2023-10-24 00:00:00,76.95574188232422,122.2336196899414,-1.5934640994065168,-1.172,0.0,1.4094654404998712
2023-10-25 00:00:00,75.1630630493164,120.87049865722656,-1.5922916132624194,-0.068,0.0,1.4094654404998712
2023-10-26 00:00:00,75.21286010742188,121.39783477783203,-1.5918889246556884,0.269,0.0,1.4094654404998712
2023-10-27 00:00:00,75.83033752441406,120.11431121826172,-1.5894695596734427,-1.105,0.0,1.4094654404998712
2023-10-30 00:00:00,76.22871398925781,121.20878601074219,-1.5872926135243106,-0.672,0.0,1.4094654404998712
2023-10-31 00:00:00,76.89598846435547,122.15401458740234,-1.5852086477191298,-0.609,0.0,1.4094654404998712
2023-11-01 00:00:00,76.49761199951172,122.35301971435547,-1.5840997236843268,0.036,0.0,1.4094654404998712
2023-11-02 00:00:00,78.33013153076172,124.2932357788086,-1.5823230962984534,-0.489,0.0,1.4094654404998712
2023-11-03 00:00:00,79.48541259765625,127.66622161865234,-1.5820535321430746,0.576,0.0,1.4094654404998712
2023-11-06 00:00:00,79.99333953857422,127.1090316772461,-1.5807721766793306,-0.319,0.0,1.4094654404998712
2023-11-07 00:00:00,79.54517364501953,127.16873168945312,-1.5801444218129037,0.213,0.0,1.4094654404998712
2023-11-08 00:00:00,80.52117919921875,128.90000915527344,-1.5798695047228657,0.315,0.0,1.4094654404998712
2023-11-09 00:00:00,80.3219985961914,127.37000274658203,-1.578512551827877,-0.545,0.0,1.4094654404998712
2023-11-10 00:00:00,81.69638061523438,128.80999755859375,-1.5763635929199395,-0.92,0.0,1.4094654404998712
2023-11-13 00:00:00,81.44740295410156,129.27999877929688,-1.5750689158865194,-0.164,0.0,1.4094654404998712
2023-11-14 00:00:00,83.59861755371094,133.50999450683594,-1.5748394237163852,0.476,0.0,1.4094654404998712
2023-11-15 00:00:00,83.25999450683594,133.6199951171875,-1.5754353326876769,0.903,0.0,1.4094654404998712
2023-11-16 00:00:00,83.91999816894531,135.16000366210938,-1.576605884873582,1.147,0.0,1.4094654404998712
2023-11-17 00:00:00,84.54000091552734,135.8699951171875,-1.5775291091885617,0.873,0.0,1.4094654404998712
2023-11-20 00:00:00,84.80000305175781,135.55999755859375,-1.577651992704333,0.326,0.0,1.4094654404998712
2023-11-21 00:00:00,84.9000015258789,136.5800018310547,-1.578433417974369,1.055,0.0,1.4094654404998712
2023-11-22 00:00:00,84.94000244140625,136.63999938964844,-1.5792632051060747,1.111,0.0,1.4094654404998712
2023-11-24 00:00:00,85.04000091552734,136.4499969482422,-1.5797077037552916,1.021,0.0,1.4094654404998712
2023-11-27 00:00:00,85.19999694824219,137.2899932861328,-1.580596313324105,1.458,0.0,1.4094654404998712
2023-11-28 00:00:00,84.30000305175781,138.0800018310547,-1.583550389506293,2.903,-1.0,1.4094654404998712
2023-11-29 00:00:00,84.33000183105469,139.5500030517578,-1.5879486877966773,3.14,-1.0,1.4056199730472754
2023-11-30 00:00:00,85.79000091552734,141.99000549316406,-1.5923541368194205,2.552,-1.0,1.4065400966726123
2023-12-01 00:00:00,86.75,143.6300048828125,-1.5964996786575423,2.151,-1.0,1.4074201451918158
2023-12-04 00:00:00,87.23999786376953,143.14999389648438,-1.5990898224647736,1.148,-1.0,1.4126854287894794
2023-12-05 00:00:00,85.83999633789062,142.64999389648438,-1.602802839656223,1.851,-1.0,1.4076182354752829
2023-12-06 00:00:00,86.44999694824219,142.6999969482422,-1.6055523710506547,1.108,-1.0,1.411758216512677
2023-12-07 00:00:00,86.66000366210938,144.97999572753906,-1.609697698226181,1.874,-1.0,1.4061915406457386
2023-12-08 00:00:00,87.5,143.97999572753906,-1.6115845840358447,0.426,-1.0,1.41502416799712
2023-12-11 00:00:00,88.51000213623047,145.83999633789062,-1.6131492340354465,0.445,-1.0,1.4146991398790139
2023-12-12 00:00:00,89.04000091552734,145.3699951171875,-1.6133229593979637,-0.367,0.0,1.419337004339378
2023-12-13 00:00:00,89.41000366210938,147.47000122070312,-1.6146160740062787,0.421,0.0,1.419337004339378
2023-12-14 00:00:00,90.66999816894531,149.14999389648438,-1.6156626046916098,0.137,0.0,1.419337004339378
2023-12-15 00:00:00,90.19000244140625,148.67999267578125,-1.616854861724518,0.207,0.0,1.419337004339378
2023-12-18 00:00:00,89.48999786376953,148.75,-1.6190514807434246,0.784,0.0,1.419337004339378
2023-12-19 00:00:00,89.81999969482422,149.50999450683594,-1.6214307359134632,0.745,0.0,1.419337004339378
2023-12-20 00:00:00,88.2699966430664,146.32000732421875,-1.6230379916062274,0.175,0.0,1.419337004339378
2023-12-21 00:00:00,88.4000015258789,147.75,-1.6254846977785917,0.796,0.0,1.419337004339378
2023-12-22 00:00:00,89.11000061035156,148.75,-1.6277311941434902,0.518,0.0,1.419337004339378
2023-12-26 00:00:00,89.62999725341797,149.69000244140625,-1.6298465623987275,0.407,0.0,1.419337004339378
2023-12-27 00:00:00,89.61000061035156,150.16000366210938,-1.6322166164425191,0.572,0.0,1.419337004339378
2023-12-28 00:00:00,89.66999816894531,150.3800048828125,-1.6345430475993288,0.47,0.0,1.419337004339378
2023-12-29 00:00:00,89.47000122070312,149.5500030517578,-1.6362264069972936,-0.073,0.0,1.419337004339378
2024-01-02 00:00:00,88.43000030517578,147.27999877929688,-1.6371678966385546,-0.711,0.0,1.419337004339378
2024-01-03 00:00:00,87.6500015258789,145.6199951171875,-1.6375776208447415,-1.156,0.0,1.419337004339378
2024-01-04 00:00:00,87.68000030517578,144.91000366210938,-1.6371957684511094,-1.767,1.0,1.419337004339378
2024-01-05 00:00:00,87.51000213623047,145.94000244140625,-1.6378832671323227,-0.659,1.0,1.4236518347743814
2024-01-08 00:00:00,87.55999755859375,147.38999938964844,-1.6399058476740138,0.383,0.0,1.4277449426013697
2024-01-09 00:00:00,86.9000015258789,146.22999572753906,-1.6419148734132363,0.131,0.0,1.4277449426013697
2024-01-10 00:00:00,87.0,147.2899932861328,-1.644567030299808,0.686,0.0,1.4277449426013697
2024-01-11 00:00:00,86.12000274658203,146.38999938964844,-1.6476078022531637,0.897,0.0,1.4277449426013697
2024-01-12 00:00:00,86.20999908447266,145.5500030517578,-1.6495966707193013,-0.205,0.0,1.4277449426013697
2024-01-16 00:00:00,86.66000366210938,143.75999450683594,-1.6489991464956544,-2.349,1.0,1.4277449426013697
2024-01-17 00:00:00,85.44999694824219,143.0800018310547,-1.6492114249065664,-1.177,1.0,1.4323123539381433
2024-01-18 00:00:00,86.97000122070312,144.9499969482422,-1.6489665219955913,-1.592,1.0,1.430177824979266
2024-01-19 00:00:00,87.77999877929688,141.38999938964844,-1.6442790164062513,-3.943,1.0,1.4144837479075183
2024-01-22 00:00:00,87.94000244140625,142.13999938964844,-1.6396859174724452,-2.873,1.0,1.4175948926554847
2024-01-23 00:00:00,88.33999633789062,142.44000244140625,-1.6351546867851396,-2.507,1.0,1.4177497522283125
2024-01-24 00:00:00,88.01000213623047,141.02999877929688,-1.630215474712269,-2.402,1.0,1.4162182795866942
2024-01-25 00:00:00,88.9800033569336,142.7899932861328,-1.6257647056331785,-1.949,1.0,1.418217625106984
2024-01-26 00:00:00,88.62999725341797,143.0399932861328,-1.622481898264733,-1.345,1.0,1.4220873106909886
2024-01-29 00:00:00,89.31999969482422,142.86000061035156,-1.618489303023639,-1.659,1.0,1.418806818118427
2024-01-30 00:00:00,90.0,143.07000732421875,-1.613915277814715,-1.725,1.0,1.417145815481575
2024-01-31 00:00:00,88.44000244140625,141.0399932861328,-1.610053269298578,-1.286,1.0,1.4200715354247908
2024-02-01 00:00:00,89.58000183105469,141.5,-1.6053878288893444,-1.572,1.0,1.4167154641110038
2024-02-02 00:00:00,90.97000122070312,140.08999633789062,-1.5977433671408892,-2.416,1.0,1.4063941741652042
2024-02-05 00:00:00,90.88999938964844,137.57000732421875,-1.5881430867008477,-2.567,1.0,1.4010039325736785
2024-02-06 00:00:00,91.94000244140625,139.88999938964844,-1.5796096329534608,-1.91,1.0,1.4060439374808131
2024-02-07 00:00:00,91.7699966430664,139.3699951171875,-1.571734488563226,-1.636,1.0,1.407705528100284
2024-02-08 00:00:00,90.87000274658203,138.6300048828125,-1.5652054962160133,-1.181,1.0,1.412219697845531
2024-02-09 00:00:00,91.08000183105469,139.5800018310547,-1.5599628542100088,-0.805,1.0,1.416120853583791
2024-02-12 00:00:00,91.33999633789062,140.89999389648438,-1.556150351586837,-0.389,1.0,1.4205818830988104
