Date,x,y,hr,zScore,numUnits,cum rets
2022-05-19 00:00:00,69.59176635742188,119.1659164428711,-1.7581358298372118,-1.116,1.0,1.0082942648887319
2022-05-20 00:00:00,69.3890609741211,116.2613296508789,-1.7478624921797428,-1.519,1.0,1.000567919573557
2022-05-23 00:00:00,69.27848815917969,119.30192565917969,-1.7413573817081809,-0.579,1.0,1.015923917436782
2022-05-24 00:00:00,71.4805908203125,117.99048614501953,-1.7307764062359767,-1.591,1.0,0.9977624844527032
2022-05-25 00:00:00,71.66486358642578,119.8847885131836,-1.7217729284575292,-1.029,1.0,1.0068904124005662
2022-05-26 00:00:00,72.16240692138672,122.69223022460938,-1.7158470196022781,-0.44,1.0,1.016538681289039
2022-05-27 00:00:00,72.53096008300781,126.31568145751953,-1.7141616384644422,0.291,0.0,1.0289598620535114
2022-05-31 00:00:00,71.54508972167969,122.87680053710938,-1.7117066448287888,-0.089,0.0,1.0289598620535114
2022-06-01 00:00:00,71.34237670898438,121.7887954711914,-1.7085039070950567,-0.23,0.0,1.0289598620535114
2022-06-02 00:00:00,71.4805908203125,125.11109161376953,-1.708577117538053,0.501,0.0,1.0289598620535114
2022-06-03 00:00:00,71.39765930175781,121.87622833251953,-1.7061469970004555,-0.214,0.0,1.0289598620535114
2022-06-06 00:00:00,71.95970153808594,123.49852752685547,-1.7040506699645812,-0.036,0.0,1.0289598620535114
2022-06-07 00:00:00,71.14888763427734,125.10137939453125,-1.7052634715813564,0.642,0.0,1.0289598620535114
2022-06-08 00:00:00,68.70723724365234,123.38195037841797,-1.7096185508784068,1.115,0.0,1.0289598620535114
2022-06-09 00:00:00,67.63844299316406,120.4482192993164,-1.7132005026070276,0.783,0.0,1.0289598620535114
2022-06-10 00:00:00,67.93328094482422,112.58931732177734,-1.7076985107802447,-1.047,0.0,1.0289598620535114
2022-06-13 00:00:00,65.67589569091797,110.06358337402344,-1.7019896776519579,-0.622,0.0,1.0289598620535114
2022-06-14 00:00:00,62.828834533691406,108.32472229003906,-1.6998425435139588,0.127,0.0,1.0289598620535114
2022-06-15 00:00:00,62.985469818115234,110.37443542480469,-1.7004789911774862,0.556,0.0,1.0289598620535114
2022-06-16 00:00:00,62.17466735839844,105.40069580078125,-1.6978962475045667,-0.216,0.0,1.0289598620535114
2022-06-17 00:00:00,60.73731231689453,106.87725830078125,-1.698906937617154,0.762,0.0,1.0289598620535114
2022-06-21 00:00:00,61.99959945678711,107.4406967163086,-1.6989842081824045,0.452,0.0,1.0289598620535114
2022-06-22 00:00:00,62.93940353393555,109.51956939697266,-1.699359605297065,0.683,0.0,1.0289598620535114
2022-06-23 00:00:00,64.45967864990234,111.09329986572266,-1.6986954971645143,0.521,0.0,1.0289598620535114
2022-06-24 00:00:00,66.10895538330078,117.55335235595703,-1.7017644583866622,1.67,-1.0,1.0289598620535114
2022-06-27 00:00:00,67.06718444824219,117.8350601196289,-1.7040259108487261,1.122,-1.0,1.0354248211479178
2022-06-28 00:00:00,67.40809631347656,115.863037109375,-1.7032003918024483,0.3,-1.0,1.0462509865362535
2022-06-29 00:00:00,66.61571502685547,113.86188507080078,-1.7010289485804333,0.135,-1.0,1.0484823539495594
2022-06-30 00:00:00,67.37124633789062,111.07386016845703,-1.6943465050788113,-1.011,0.0,1.0645685589868288
2022-07-01 00:00:00,68.80858612060547,114.49332427978516,-1.6881793930648907,-0.562,0.0,1.0645685589868288
2022-07-05 00:00:00,66.02603149414062,115.36762237548828,-1.6885396647500768,1.141,0.0,1.0645685589868288
2022-07-06 00:00:00,66.24716186523438,115.98934173583984,-1.6906265311867763,1.113,0.0,1.0645685589868288
2022-07-07 00:00:00,65.71276092529297,115.6978988647461,-1.6936156859746394,1.172,0.0,1.0645685589868288
2022-07-08 00:00:00,65.29813385009766,114.50303649902344,-1.6960770474156301,0.923,0.0,1.0645685589868288
2022-07-11 00:00:00,65.85095977783203,110.90872955322266,-1.6933943005956775,-0.537,0.0,1.0645685589868288
2022-07-12 00:00:00,65.41790771484375,112.71558380126953,-1.6924408955902324,0.283,0.0,1.0645685589868288
2022-07-13 00:00:00,64.4504623413086,112.40473175048828,-1.6933736660490397,0.691,0.0,1.0645685589868288
2022-07-14 00:00:00,64.88351440429688,111.55957794189453,-1.6929818857109387,0.06,0.0,1.0645685589868288
2022-07-15 00:00:00,65.17835998535156,113.46360778808594,-1.6938215522399998,0.561,0.0,1.0645685589868288
2022-07-18 00:00:00,64.4320297241211,111.62759399414062,-1.6942726781025792,0.264,0.0,1.0645685589868288
2022-07-19 00:00:00,64.69002532958984,116.34876251220703,-1.6992180923263074,1.844,-1.0,1.0645685589868288
2022-07-20 00:00:00,64.18327331542969,116.66932678222656,-1.7061431582678888,1.954,-1.0,1.0613092576672816
2022-07-21 00:00:00,63.934486389160156,119.43791198730469,-1.7165085099442843,2.561,-1.0,1.0502684784614058
2022-07-22 00:00:00,64.71766662597656,124.08139038085938,-1.7305359257994972,2.861,-1.0,1.0401390936771913
2022-07-25 00:00:00,65.8141098022461,123.24595642089844,-1.7414813105439853,1.667,-1.0,1.0546569993387203
2022-07-26 00:00:00,66.58806610107422,122.61450958251953,-1.74878025028618,0.886,-1.0,1.0649693675895942
2022-07-27 00:00:00,66.4037857055664,123.30422973632812,-1.75578857938147,1.005,-1.0,1.0626908459713662
2022-07-28 00:00:00,67.89643096923828,126.6362533569336,-1.762980648617894,1.053,-1.0,1.061785830192655
2022-07-29 00:00:00,68.4836654663086,125.59681701660156,-1.7674410288338092,0.369,-1.0,1.0714363539965628
2022-08-01 00:00:00,68.80059814453125,125.61624908447266,-1.7703526887410417,0.101,-1.0,1.074431499754536
2022-08-02 00:00:00,68.76329803466797,123.03223419189453,-1.7699948178058607,-0.711,0.0,1.0846192191958255
2022-08-03 00:00:00,70.1614990234375,124.57682037353516,-1.7679276421965189,-0.942,0.0,1.0846192191958255
2022-08-04 00:00:00,71.37327575683594,124.46996307373047,-1.7632472291571175,-1.45,0.0,1.0846192191958255
2022-08-05 00:00:00,70.30130767822266,123.7219467163086,-1.7595601728984807,-1.029,0.0,1.0846192191958255
2022-08-08 00:00:00,70.4411392211914,124.6253662109375,-1.7570742963755013,-0.744,0.0,1.0846192191958255
2022-08-09 00:00:00,71.12159729003906,124.15682983398438,-1.753294417206078,-1.12,0.0,1.0846192191958255
2022-08-10 00:00:00,71.26142120361328,130.3553924560547,-1.7557808544459228,0.561,0.0,1.0846192191958255
2022-08-11 00:00:00,70.56231689453125,130.16015625,-1.7605391180205754,0.725,0.0,1.0846192191958255
2022-08-12 00:00:00,72.0723648071289,132.3174591064453,-1.7649057238557408,0.485,0.0,1.0846192191958255
2022-08-15 00:00:00,72.5197982788086,133.13743591308594,-1.7688738488112332,0.398,0.0,1.0846192191958255
2022-08-16 00:00:00,72.93925476074219,133.93789672851562,-1.7725024240165452,0.309,0.0,1.0846192191958255
2022-08-17 00:00:00,72.67825317382812,130.98989868164062,-1.7731931501120937,-0.455,0.0,1.0846192191958255
2022-08-18 00:00:00,72.58504486083984,130.2968292236328,-1.7726535425153307,-0.68,0.0,1.0846192191958255
2022-08-19 00:00:00,72.66893768310547,128.79354858398438,-1.770186749080476,-1.192,0.0,1.0846192191958255
2022-08-22 00:00:00,71.64358520507812,124.19588470458984,-1.7646280611717404,-1.805,1.0,1.0846192191958255
2022-08-23 00:00:00,71.07498931884766,124.6058578491211,-1.7602838927055207,-1.208,1.0,1.0915153781145395
2022-08-24 00:00:00,70.82331848144531,124.957275390625,-1.7573357812266088,-0.864,1.0,1.0955376467596554
2022-08-25 00:00:00,71.82068634033203,129.00831604003906,-1.7572683433131266,-0.174,1.0,1.1045620380097034
2022-08-26 00:00:00,70.76737976074219,123.03426361083984,-1.7535713389307293,-1.306,1.0,1.0889367226884563
2022-08-29 00:00:00,70.97244262695312,122.93663787841797,-1.7489048535537828,-1.285,1.0,1.088426620360957
2022-08-30 00:00:00,70.27335357666016,124.73275756835938,-1.7474816550235566,-0.376,1.0,1.1010259841616965
2022-08-31 00:00:00,70.23606872558594,123.95185089111328,-1.7461106366927355,-0.549,1.0,1.0985139089330211
2022-09-01 00:00:00,70.7860336303711,121.57003784179688,-1.741406767838128,-1.333,1.0,1.0862235258691044
2022-09-02 00:00:00,69.81660461425781,120.80863189697266,-1.737291631526058,-0.957,1.0,1.091238259322333
2022-09-06 00:00:00,69.47172546386719,120.74031066894531,-1.7341409539898371,-0.706,1.0,1.0943463592076386
2022-09-07 00:00:00,71.49444580078125,124.79133605957031,-1.7319822088360448,-0.472,1.0,1.0971525930995232
2022-09-08 00:00:00,71.44783782958984,124.71324920654297,-1.7301986036654293,-0.388,1.0,1.0976763755878913
2022-09-09 00:00:00,71.8113784790039,125.05490112304688,-1.7283318184481569,-0.39,1.0,1.0970611733918056
2022-09-12 00:00:00,72.47318267822266,128.442138671875,-1.7288947410010622,0.475,0.0,1.1057417831596947
2022-09-13 00:00:00,69.97508239746094,121.5212173461914,-1.7272531588840636,-0.427,0.0,1.1057417831596947
2022-09-14 00:00:00,70.30130767822266,117.29447937011719,-1.720333285827324,-2.007,1.0,1.1057417831596947
2022-09-15 00:00:00,68.8099136352539,117.56780242919922,-1.715711426637591,-0.723,1.0,1.119140350610068
2022-09-16 00:00:00,68.63280487060547,114.67839813232422,-1.7092271792944422,-1.534,1.0,1.1099135383420717
2022-09-19 00:00:00,69.62086486816406,116.38666534423828,-1.702818311656819,-1.259,1.0,1.1118955013516034
2022-09-20 00:00:00,68.33452606201172,113.87796020507812,-1.6965482701240067,-1.147,1.0,1.1123748367876398
2022-09-21 00:00:00,67.82186126708984,110.59808349609375,-1.6882389898106334,-1.763,1.0,1.1041714382166026
2022-09-22 00:00:00,67.76592254638672,109.25098419189453,-1.6787566279825774,-1.873,1.0,1.1014358170823482
2022-09-23 00:00:00,66.43297576904297,109.64144897460938,-1.6723983645369689,-0.712,1.0,1.1152552571035976
2022-09-26 00:00:00,64.94156646728516,108.51886749267578,-1.6685661377730714,-0.103,1.0,1.1227272854429502
2022-09-27 00:00:00,63.61793518066406,108.41149139404297,-1.6677327110260722,0.661,0.0,1.1327697969284132
2022-09-28 00:00:00,64.29840087890625,110.59808349609375,-1.6687207637299042,1.08,0.0,1.1327697969284132
2022-09-29 00:00:00,61.72571563720703,108.94837188720703,-1.672851437392781,2.004,-1.0,1.1327697969284132
2022-09-30 00:00:00,60.131771087646484,108.0503158569336,-1.6793315917736802,2.396,-1.0,1.1261740769090745
2022-10-03 00:00:00,61.54861068725586,111.46685028076172,-1.6870804120624268,2.421,-1.0,1.123571891139911
2022-10-04 00:00:00,62.45277404785156,116.3085708618164,-1.6982031785973972,2.896,-1.0,1.1117819779674407
2022-10-05 00:00:00,60.85883331298828,117.3628158569336,-1.7134655340576832,3.08,-1.0,1.0990035927145276
2022-10-06 00:00:00,58.47257995605469,114.92243194580078,-1.7305772674002216,2.757,-1.0,1.0960060426896399
2022-10-07 00:00:00,56.84135055541992,111.64256286621094,-1.7466765850699837,2.187,-1.0,1.1025107286793918
2022-10-10 00:00:00,57.0370979309082,108.10888671875,-1.7574010963355406,1.183,-1.0,1.1240483616811097
2022-10-11 00:00:00,57.35402297973633,108.11865234375,-1.7656143108846742,0.922,-1.0,1.1289114886756129
2022-10-12 00:00:00,55.70415115356445,107.07416534423828,-1.7748208527333833,1.13,-1.0,1.1223284356789833
2022-10-13 00:00:00,57.848052978515625,109.54383087158203,-1.7822670783108976,0.75,-1.0,1.1306339676637753
2022-10-14 00:00:00,57.59637451171875,107.69890594482422,-1.7872580063504793,0.386,-1.0,1.138627882081591
2022-10-17 00:00:00,58.36072540283203,110.60783386230469,-1.7930593315919536,0.586,-1.0,1.133033203812914
2022-10-18 00:00:00,60.0385627746582,113.9560317993164,-1.7990770738503852,0.556,-1.0,1.1331303368151777
2022-10-19 00:00:00,59.7029914855957,111.90612030029297,-1.803120818127865,0.203,-1.0,1.1408167697621796
2022-10-20 00:00:00,58.398006439208984,105.82469177246094,-1.8021961880118404,-0.547,0.0,1.1582252004844884
2022-10-21 00:00:00,59.82417297363281,109.9050064086914,-1.801772221403261,-0.256,0.0,1.1582252004844884
2022-10-24 00:00:00,60.22498321533203,109.28026580810547,-1.799983580156666,-0.512,0.0,1.1582252004844884
2022-10-25 00:00:00,61.32490921020508,110.26618194580078,-1.796847759483328,-0.667,0.0,1.1582252004844884
2022-10-26 00:00:00,61.55792999267578,110.12952423095703,-1.7929632999814997,-0.72,0.0,1.1582252004844884
2022-10-27 00:00:00,61.958740234375,109.68049621582031,-1.7878478169117968,-0.872,0.0,1.1582252004844884
2022-10-28 00:00:00,63.664546966552734,111.43756866455078,-1.7813366048990564,-1.002,0.0,1.1582252004844884
2022-10-31 00:00:00,63.45214080810547,111.45708465576172,-1.7754049741914224,-0.833,0.0,1.1582252004844884
2022-11-01 00:00:00,64.01858520507812,111.28137969970703,-1.768734272995831,-1.001,0.0,1.1582252004844884
2022-11-02 00:00:00,63.52766036987305,107.45486450195312,-1.759068696002637,-1.409,0.0,1.1582252004844884
2022-11-03 00:00:00,64.68888092041016,107.09368896484375,-1.746690226613116,-1.656,1.0,1.1582252004844884
2022-11-04 00:00:00,65.63297271728516,112.7065658569336,-1.7389809021413543,-0.822,1.0,1.177929865145074
2022-11-07 00:00:00,64.59447479248047,113.5655746459961,-1.7359602252304538,-0.306,1.0,1.1906018562161362
2022-11-08 00:00:00,64.47174835205078,113.68270874023438,-1.7346747271326615,-0.266,1.0,1.1924334463992277
2022-11-09 00:00:00,65.9539566040039,112.05362701416016,-1.729271385603674,-1.056,1.0,1.1754331873151649
2022-11-10 00:00:00,68.54075622558594,122.48566436767578,-1.7298379684693572,0.1,1.0,1.1999920884858173
2022-11-11 00:00:00,67.63442993164062,127.66734313964844,-1.7391871853532355,1.26,0.0,1.22492988015754
2022-11-14 00:00:00,67.17183685302734,125.5770034790039,-1.7485036814917563,0.836,0.0,1.22492988015754
2022-11-15 00:00:00,69.74919891357422,127.08832550048828,-1.7538316745539748,0.163,0.0,1.22492988015754
2022-11-16 00:00:00,69.2016372680664,126.58782958984375,-1.758287167377936,0.197,0.0,1.22492988015754
2022-11-17 00:00:00,68.26697540283203,124.30121612548828,-1.7614955449570997,0.045,0.0,1.22492988015754
2022-11-18 00:00:00,69.60758209228516,126.07750701904297,-1.7635375431380698,-0.075,0.0,1.22492988015754
2022-11-21 00:00:00,71.00483703613281,126.6467056274414,-1.7631176845290466,-0.408,0.0,1.22492988015754
2022-11-22 00:00:00,71.90172576904297,129.53196716308594,-1.7635602343168788,-0.089,0.0,1.22492988015754
2022-11-23 00:00:00,72.11885070800781,130.58201599121094,-1.7648699905064205,0.114,0.0,1.22492988015754
2022-11-25 00:00:00,72.22270965576172,130.87644958496094,-1.7663851436423634,0.196,0.0,1.22492988015754
2022-11-28 00:00:00,72.30766296386719,127.87342834472656,-1.7645028105676865,-0.555,0.0,1.22492988015754
2022-11-29 00:00:00,71.96781158447266,129.37493896484375,-1.7642262575617416,0.056,0.0,1.22492988015754
2022-11-30 00:00:00,73.94094848632812,132.70181274414062,-1.764162609847252,0.066,0.0,1.22492988015754
2022-12-01 00:00:00,73.45001983642578,132.4466552734375,-1.7647867493682305,0.267,0.0,1.22492988015754
2022-12-02 00:00:00,73.75212860107422,134.74305725097656,-1.7673388138208161,0.741,0.0,1.22492988015754
2022-12-05 00:00:00,73.50666809082031,132.08352661132812,-1.767797573251122,0.103,0.0,1.22492988015754
2022-12-06 00:00:00,73.69548034667969,129.58102416992188,-1.764848183295364,-0.651,0.0,1.22492988015754
2022-12-07 00:00:00,73.28008270263672,127.0294418334961,-1.7595368740327069,-1.033,0.0,1.22492988015754
2022-12-08 00:00:00,73.4311294555664,127.93231964111328,-1.7547943760585876,-0.71,0.0,1.22492988015754
2022-12-09 00:00:00,73.16678619384766,127.98139190673828,-1.7510647875516339,-0.447,0.0,1.22492988015754
2022-12-12 00:00:00,74.59236907958984,129.85581970214844,-1.7472011238375738,-0.535,0.0,1.22492988015754
2022-12-13 00:00:00,74.95111083984375,131.57322692871094,-1.7447285911556742,-0.153,0.0,1.22492988015754
2022-12-14 00:00:00,75.00775909423828,130.29742431640625,-1.7413427831818413,-0.494,0.0,1.22492988015754
2022-12-15 00:00:00,74.22416687011719,126.3719253540039,-1.7354346312708984,-1.117,0.0,1.22492988015754
2022-12-16 00:00:00,73.54442596435547,123.8203353881836,-1.728069186373044,-1.338,0.0,1.22492988015754
2022-12-19 00:00:00,72.95909881591797,123.29039764404297,-1.721445883150415,-1.032,0.0,1.22492988015754
2022-12-20 00:00:00,72.7042007446289,122.43659973144531,-1.7150451204778767,-1.012,0.0,1.22492988015754
2022-12-21 00:00:00,73.11958312988281,124.78208923339844,-1.7108180321307425,-0.493,0.0,1.22492988015754
2022-12-22 00:00:00,72.685302734375,123.51610565185547,-1.706821108658424,-0.66,0.0,1.22492988015754
2022-12-23 00:00:00,73.57275390625,124.36009979248047,-1.7024889779191839,-0.785,0.0,1.22492988015754
2022-12-27 00:00:00,73.36504364013672,124.06568145751953,-1.6984740874485889,-0.644,0.0,1.22492988015754
2022-12-28 00:00:00,72.51536560058594,121.95571899414062,-1.69414751879838,-0.728,0.0,1.22492988015754
2022-12-29 00:00:00,72.8174819946289,124.04606628417969,-1.6916710125006147,-0.185,0.0,1.22492988015754
2022-12-30 00:00:00,71.7884292602539,123.39834594726562,-1.6908607859633453,0.219,0.0,1.22492988015754
2023-01-03 00:00:00,70.4572525024414,124.47785949707031,-1.6938263371206213,1.483,0.0,1.22492988015754
2023-01-04 00:00:00,71.17476654052734,127.54957580566406,-1.6992451402857767,2.146,-1.0,1.22492988015754
2023-01-05 00:00:00,69.53205871582031,120.81732940673828,-1.7007810712605334,0.589,-1.0,1.2418603842862055
2023-01-06 00:00:00,71.2408447265625,126.10694885253906,-1.7038346908161337,1.475,-1.0,1.2331092838089275
2023-01-09 00:00:00,71.32582092285156,126.47005462646484,-1.7072056857986013,1.442,-1.0,1.2331983862445726
2023-01-10 00:00:00,71.42022705078125,127.36309051513672,-1.7111452406969891,1.559,-1.0,1.2313933013485587
2023-01-11 00:00:00,72.1849365234375,129.63009643554688,-1.7158927027920896,1.673,-1.0,1.2289641027189082
2023-01-12 00:00:00,71.9394760131836,129.16883850097656,-1.7204168468455476,1.462,-1.0,1.2304092921401484
2023-01-13 00:00:00,71.15589141845703,129.93431091308594,-1.726720183207198,1.921,-1.0,1.2238228961075646
2023-01-17 00:00:00,70.9104232788086,128.1874542236328,-1.7315914669274202,1.298,-1.0,1.2304706675643182
2023-01-18 00:00:00,70.23068237304688,125.40035247802734,-1.7341732278570963,0.658,-1.0,1.2377175980681894
2023-01-19 00:00:00,70.04186248779297,121.2981948852539,-1.7322345332646494,-0.539,0.0,1.2527155970756088
2023-01-20 00:00:00,71.14643859863281,128.5603790283203,-1.7349617458894364,1.136,0.0,1.2527155970756088
2023-01-23 00:00:00,69.63591003417969,127.87342834472656,-1.740453301302812,1.551,-1.0,1.2527155970756088
2023-01-24 00:00:00,69.91912841796875,128.53094482421875,-1.7463104407049919,1.423,-1.0,1.253692880552096
2023-01-25 00:00:00,69.62647247314453,125.76345825195312,-1.7495145001630983,0.634,-1.0,1.2637080111941552
2023-01-26 00:00:00,69.88136291503906,125.32185363769531,-1.7510208533817935,0.3,-1.0,1.2677163396758633
2023-01-27 00:00:00,69.92857360839844,124.9783706665039,-1.7516228244395875,0.117,-1.0,1.269608491474416
2023-01-30 00:00:00,69.8719253540039,125.27277374267578,-1.7523958220527087,0.193,-1.0,1.26823749178144
2023-01-31 00:00:00,71.21405792236328,127.91267395019531,-1.7534458915908484,0.233,-1.0,1.2673941863913578
2023-02-01 00:00:00,73.10545349121094,129.5515899658203,-1.7527513518577522,-0.316,0.0,1.2737071451829691
2023-02-02 00:00:00,74.26130676269531,131.926513671875,-1.7521009854043477,-0.196,0.0,1.2737071451829691
2023-02-03 00:00:00,72.48454284667969,128.29541015625,-1.7509802100950393,-0.361,0.0,1.2737071451829691
2023-02-06 00:00:00,72.22661590576172,127.0294418334961,-1.7490118224643585,-0.638,0.0,1.2737071451829691
2023-02-07 00:00:00,71.6152572631836,128.8253631591797,-1.7499431677993156,0.277,0.0,1.2737071451829691
2023-02-08 00:00:00,70.01043701171875,127.95195007324219,-1.753394993555645,0.86,0.0,1.2737071451829691
2023-02-09 00:00:00,68.89279174804688,126.46024322509766,-1.7576152899429798,0.889,0.0,1.2737071451829691
2023-02-10 00:00:00,70.77464294433594,123.87922668457031,-1.755659363624426,-1.457,0.0,1.2737071451829691
2023-02-13 00:00:00,71.30958557128906,126.34247589111328,-1.7541083828863224,-0.834,0.0,1.2737071451829691
2023-02-14 00:00:00,70.75553894042969,127.36309051513672,-1.754801578980772,-0.073,0.0,1.2737071451829691
2023-02-15 00:00:00,71.30958557128906,128.59963989257812,-1.7561881697075206,-0.054,0.0,1.2737071451829691
2023-02-16 00:00:00,70.95613861083984,127.34736633300781,-1.7569709246651621,-0.448,0.0,1.2737071451829691
2023-02-17 00:00:00,71.73944091796875,128.0967559814453,-1.7569260974322887,-0.788,0.0,1.2737071451829691
2023-02-21 00:00:00,70.82240295410156,124.43853759765625,-1.7546095722374313,-1.651,1.0,1.2737071451829691
2023-02-22 00:00:00,70.30657196044922,126.87407684326172,-1.7554119672291866,-0.031,1.0,1.2868286981918118
2023-02-23 00:00:00,70.0964126586914,126.38105010986328,-1.756687026768625,-0.09,1.0,1.2859730996204164
2023-02-24 00:00:00,70.0964126586914,127.8995590209961,-1.7595326453851012,0.55,0.0,1.2912232974653934
2023-02-27 00:00:00,70.79374694824219,129.7730255126953,-1.7631709109513292,0.743,0.0,1.2912232974653934
2023-02-28 00:00:00,70.38298797607422,130.2167510986328,-1.7679144868069785,1.133,0.0,1.2912232974653934
2023-03-01 00:00:00,70.01043701171875,131.37042236328125,-1.7744174688426737,1.716,-1.0,1.2912232974653934
2023-03-02 00:00:00,71.90182495117188,132.95794677734375,-1.7790016734356495,0.723,-1.0,1.299266340712558
2023-03-03 00:00:00,73.00038146972656,135.5413818359375,-1.7834784312539038,0.872,-1.0,1.2981287599584324
2023-03-06 00:00:00,72.67559814453125,131.7747039794922,-1.7843190878333788,-0.663,0.0,1.3105537536316008
2023-03-07 00:00:00,72.31259155273438,129.08279418945312,-1.7822377059960601,-1.512,1.0,1.3105537536316008
2023-03-08 00:00:00,73.61173248291016,129.3786163330078,-1.7776362625011193,-2.109,1.0,1.3040948020693826
2023-03-09 00:00:00,72.2743911743164,125.62179565429688,-1.7714504683391659,-2.356,1.0,1.3004187472212618
2023-03-10 00:00:00,70.69822692871094,124.24134063720703,-1.766831711536063,-1.495,1.0,1.3073950963964955
2023-03-13 00:00:00,72.07378387451172,122.96934509277344,-1.7590884258453168,-2.517,1.0,1.2948055421914093
2023-03-14 00:00:00,74.40460205078125,127.35723114013672,-1.7515734678772175,-2.013,1.0,1.2980922174392637
2023-03-15 00:00:00,74.71028137207031,123.67929077148438,-1.7404094933052763,-2.795,1.0,1.2847724713946023
2023-03-16 00:00:00,75.15924835205078,124.78366088867188,-1.7296999332702172,-2.162,1.0,1.2891993375295028
2023-03-17 00:00:00,74.16578674316406,120.78032684326172,-1.7176071347151738,-2.296,1.0,1.2836060636794557
2023-03-20 00:00:00,76.05719757080078,123.56096649169922,-1.705698405021603,-1.97,1.0,1.2853340464120082
2023-03-21 00:00:00,73.9365234375,124.83296203613281,-1.6997027255794563,-0.515,1.0,1.3066213131619704
2023-03-22 00:00:00,71.96870422363281,121.88468933105469,-1.6957560196601085,-0.32,1.0,1.309410987653432
2023-03-23 00:00:00,70.78418731689453,121.78609466552734,-1.6944397718222775,0.214,0.0,1.317698178738743
2023-03-24 00:00:00,73.76458740234375,123.68915557861328,-1.6905720780799167,-0.528,0.0,1.317698178738743
2023-03-27 00:00:00,73.8218994140625,124.24134063720703,-1.6869357944401377,-0.328,0.0,1.317698178738743
2023-03-28 00:00:00,74.09892272949219,124.45825958251953,-1.6833691033643032,-0.296,0.0,1.317698178738743
2023-03-29 00:00:00,74.93953704833984,126.4500732421875,-1.6806705529099573,-0.053,0.0,1.317698178738743
2023-03-30 00:00:00,75.5509033203125,128.01788330078125,-1.6789014534646407,0.169,0.0,1.317698178738743
2023-03-31 00:00:00,75.6941909790039,131.7155303955078,-1.6809309665443375,1.035,0.0,1.317698178738743
2023-04-03 00:00:00,74.95864868164062,138.08535766601562,-1.6911986954797549,2.535,-1.0,1.317698178738743
2023-04-04 00:00:00,75.15924835205078,136.38938903808594,-1.7002969336152638,1.746,-1.0,1.3279904577650976
2023-04-05 00:00:00,77.02198791503906,137.0105743408203,-1.7059089634912072,1.018,-1.0,1.3390867344143351
2023-04-06 00:00:00,76.69720458984375,136.14288330078125,-1.7100654004676699,0.847,-1.0,1.341452716717219
2023-04-10 00:00:00,76.82139587402344,136.40908813476562,-1.713659432719747,0.771,-1.0,1.3422819089583897
2023-04-11 00:00:00,76.46794891357422,137.35569763183594,-1.7184038989444819,0.989,-1.0,1.3378560116231033
2023-04-12 00:00:00,76.25779724121094,136.0836944580078,-1.722103688077437,0.709,-1.0,1.3423174248736882
2023-04-13 00:00:00,76.12405395507812,137.34584045410156,-1.7267940295728104,0.934,-1.0,1.338093343064957
2023-04-14 00:00:00,74.96819305419922,136.48797607421875,-1.7324524248179105,1.066,-1.0,1.3354133182076282
2023-04-17 00:00:00,75.76106262207031,138.9629364013672,-1.7389702540430583,1.168,-1.0,1.3331690135465306
2023-04-18 00:00:00,75.4744873046875,139.63345336914062,-1.7463225147083816,1.269,-1.0,1.3309071387366194
2023-04-19 00:00:00,76.40108489990234,138.5882568359375,-1.7506451932144766,0.656,-1.0,1.341899274160761
2023-04-20 00:00:00,76.62078857421875,139.47569274902344,-1.7545394417563365,0.7,-1.0,1.34115292528393
2023-04-21 00:00:00,76.98377990722656,139.998291015625,-1.7579366228329607,0.626,-1.0,1.3425178726562434
2023-04-24 00:00:00,77.29901123046875,140.96463012695312,-1.7613799449502647,0.636,-1.0,1.341990958990321
2023-04-25 00:00:00,77.31812286376953,138.46990966796875,-1.7620735390986964,0.069,-1.0,1.3513899961587907
2023-04-26 00:00:00,75.45537567138672,135.7188720703125,-1.762704159341433,0.148,-1.0,1.3495900989598462
2023-04-27 00:00:00,76.06674194335938,136.99085998535156,-1.7634672199011634,0.146,-1.0,1.3490874416537042
2023-04-28 00:00:00,75.77218627929688,138.30230712890625,-1.7660024182678822,0.474,-1.0,1.343065054705425
2023-05-01 00:00:00,76.2164306640625,137.8092803955078,-1.767433159935927,0.127,-1.0,1.3481532172859794
2023-05-02 00:00:00,75.75286865234375,137.65151977539062,-1.7691938267901302,0.208,-1.0,1.3462090467833976
2023-05-03 00:00:00,75.73355865478516,136.40908813476562,-1.769697132442969,-0.152,-1.0,1.3508178722520339
2023-05-04 00:00:00,76.96005249023438,133.60874938964844,-1.7650258683312035,-1.384,0.0,1.3679321503130504
2023-05-05 00:00:00,77.37532043457031,136.10340881347656,-1.7614451266877462,-0.992,0.0,1.3679321503130504
2023-05-08 00:00:00,77.0855941772461,136.7443389892578,-1.7594822483156958,-0.767,0.0,1.3679321503130504
2023-05-09 00:00:00,77.11457824707031,135.8331298828125,-1.757036837250634,-1.044,0.0,1.3679321503130504
2023-05-10 00:00:00,77.89683532714844,135.5557861328125,-1.7530672009887753,-1.46,0.0,1.3679321503130504
2023-05-11 00:00:00,77.80024719238281,135.9321746826172,-1.7496479829771423,-1.157,0.0,1.3679321503130504
2023-05-12 00:00:00,78.04168701171875,136.78396606445312,-1.747019112976737,-0.985,0.0,1.3679321503130504
2023-05-15 00:00:00,77.404296875,139.28985595703125,-1.7482826028575567,0.121,0.0,1.3679321503130504
2023-05-16 00:00:00,75.93635559082031,138.00225830078125,-1.751445056136591,0.425,0.0,1.3679321503130504
2023-05-17 00:00:00,75.83013153076172,141.0529022216797,-1.757905950307643,1.28,0.0,1.3679321503130504
2023-05-18 00:00:00,75.53075408935547,141.2113800048828,-1.765195636079147,1.245,0.0,1.3679321503130504
2023-05-19 00:00:00,74.86438751220703,141.04298400878906,-1.7731031227061271,1.311,0.0,1.3679321503130504
2023-05-22 00:00:00,75.02857208251953,139.33937072753906,-1.7786008440069183,0.628,0.0,1.3679321503130504
2023-05-23 00:00:00,74.98993682861328,135.5756072998047,-1.7796035556139451,-0.662,0.0,1.3679321503130504
2023-05-24 00:00:00,74.53604125976562,132.138671875,-1.7770779953049747,-1.451,0.0,1.3679321503130504
2023-05-25 00:00:00,73.77310180664062,131.77218627929688,-1.7750246325105286,-0.989,0.0,1.3679321503130504
2023-05-26 00:00:00,74.16905975341797,132.4556121826172,-1.7731897807856636,-0.899,0.0,1.3679321503130504
2023-05-30 00:00:00,73.98556518554688,133.06971740722656,-1.772457751828763,-0.515,0.0,1.3679321503130504
2023-05-31 00:00:00,74.63261413574219,130.03884887695312,-1.7678619319864934,-1.714,1.0,1.3679321503130504
2023-06-01 00:00:00,73.46406555175781,133.69371032714844,-1.7685085766053608,0.214,0.0,1.3894528423700354
2023-06-02 00:00:00,74.70987701416016,138.24986267089844,-1.7724680552538596,0.928,0.0,1.3894528423700354
2023-06-05 00:00:00,75.0961685180664,136.60568237304688,-1.7744770311248488,0.121,0.0,1.3894528423700354
2023-06-06 00:00:00,76.7089614868164,137.89329528808594,-1.7743931231974608,-0.387,0.0,1.3894528423700354
2023-06-07 00:00:00,77.74230194091797,140.4982452392578,-1.7746684397548795,-0.086,0.0,1.3894528423700354
2023-06-08 00:00:00,78.44730377197266,139.82470703125,-1.7730940478057626,-0.713,0.0,1.3894528423700354
2023-06-09 00:00:00,78.02236938476562,138.33900451660156,-1.7705653949030031,-0.862,0.0,1.3894528423700354
2023-06-12 00:00:00,78.28311920166016,138.65597534179688,-1.7679094356119982,-0.789,0.0,1.3894528423700354
2023-06-13 00:00:00,78.70804595947266,139.97328186035156,-1.7659940057130217,-0.505,0.0,1.3894528423700354
2023-06-14 00:00:00,79.21023559570312,139.35919189453125,-1.76290462534973,-0.928,0.0,1.3894528423700354
2023-06-15 00:00:00,80.68782806396484,139.92376708984375,-1.757850695576984,-1.43,0.0,1.3894528423700354
2023-06-16 00:00:00,80.39810180664062,141.7165069580078,-1.755077090629632,-0.494,0.0,1.3894528423700354
2023-06-20 00:00:00,79.79933166503906,140.68641662597656,-1.7529773225705112,-0.402,0.0,1.3894528423700354
2023-06-21 00:00:00,80.2725601196289,140.9835662841797,-1.7506556928105643,-0.494,0.0,1.3894528423700354
2023-06-22 00:00:00,79.83795928955078,139.42852783203125,-1.7477095044143083,-0.665,0.0,1.3894528423700354
2023-06-23 00:00:00,78.04168701171875,137.56643676757812,-1.7461103486177578,-0.207,0.0,1.3894528423700354
2023-06-26 00:00:00,79.14263153076172,139.73558044433594,-1.7451222060959977,-0.108,0.0,1.3894528423700354
2023-06-27 00:00:00,79.19092559814453,143.0536346435547,-1.7474461084871384,0.975,0.0,1.3894528423700354
2023-06-28 00:00:00,77.78093719482422,141.93441772460938,-1.7515075554875328,1.269,0.0,1.3894528423700354
2023-06-29 00:00:00,77.96442413330078,143.9846954345703,-1.7572586380535524,1.61,-1.0,1.3894528423700354
2023-06-30 00:00:00,78.66941833496094,146.88677978515625,-1.7644958628125578,1.831,-1.0,1.385624056463213
2023-07-03 00:00:00,78.93982696533203,147.64944458007812,-1.77173123718538,1.608,-1.0,1.3866175165556633
2023-07-05 00:00:00,79.84762573242188,144.78697204589844,-1.7740974814600012,0.094,-1.0,1.4028851979706105
2023-07-06 00:00:00,79.23920440673828,143.8460235595703,-1.7755087634381252,0.121,-1.0,1.4027916372223257
2023-07-07 00:00:00,79.11365509033203,145.371337890625,-1.7783176883499887,0.678,-1.0,1.3974570885568625
2023-07-10 00:00:00,78.5921630859375,146.49058532714844,-1.783141137130004,1.296,-1.0,1.3916393728011827
2023-07-11 00:00:00,79.35509490966797,149.15493774414062,-1.78922479972385,1.631,-1.0,1.3888188384256026
2023-07-12 00:00:00,80.4850082397461,150.2246551513672,-1.7941537857672911,1.149,-1.0,1.3933963564329073
2023-07-13 00:00:00,80.39810180664062,150.06617736816406,-1.798478638102406,0.974,-1.0,1.3945850609241885
2023-07-14 00:00:00,80.34980773925781,148.31304931640625,-1.800756122738206,0.284,-1.0,1.4008964801518482
2023-07-17 00:00:00,79.60618591308594,149.75912475585938,-1.8051492921916914,1.092,-1.0,1.3925974544581194
2023-07-18 00:00:00,79.71241760253906,149.92750549316406,-1.8095709298250753,0.905,-1.0,1.3938750803089794
2023-07-19 00:00:00,79.5965347290039,148.8280792236328,-1.8128067444834344,0.471,-1.0,1.39778911849011
2023-07-20 00:00:00,81.60527801513672,148.29324340820312,-1.8115825402450185,-1.033,0.0,1.411554782283169
2023-07-21 00:00:00,82.49376678466797,147.92677307128906,-1.8077592252607582,-1.531,1.0,1.411554782283169
2023-07-24 00:00:00,82.40684509277344,144.47991943359375,-1.8006439974559962,-2.225,1.0,1.402323997428158
2023-07-25 00:00:00,82.3199234008789,145.6090545654297,-1.7947279062390666,-1.529,1.0,1.4083668022043678
2023-07-26 00:00:00,81.8370590209961,144.78697204589844,-1.7895417436612389,-1.313,1.0,1.4099769913430888
2023-07-27 00:00:00,81.15137481689453,143.4201202392578,-1.784761126184576,-1.174,1.0,1.410837901202687
2023-07-28 00:00:00,80.92926788330078,144.02432250976562,-1.781371011010702,-0.776,1.0,1.4152619700420748
2023-07-31 00:00:00,80.8170394897461,142.5286865234375,-1.7772639417324168,-1.044,1.0,1.4118939660885494
2023-08-01 00:00:00,80.29010009765625,144.16297912597656,-1.7757776027559513,-0.255,1.0,1.4212757687436148
2023-08-02 00:00:00,80.57308959960938,140.41900634765625,-1.7708515998969483,-1.345,1.0,1.4076778568577386
2023-08-03 00:00:00,77.3821792602539,138.9431915283203,-1.7696369331134079,-0.119,1.0,1.4231511908392682
2023-08-04 00:00:00,76.6795883178711,139.23043823242188,-1.7706328954619492,0.27,0.0,1.4284391831059213
2023-08-07 00:00:00,74.76698303222656,141.89479064941406,-1.7777424616064361,1.778,-1.0,1.4284391831059213
2023-08-08 00:00:00,75.21586608886719,141.96412658691406,-1.784791359457611,1.326,-1.0,1.4329967920485487
2023-08-09 00:00:00,76.07456970214844,138.74038696289062,-1.7867697236533246,-0.077,-1.0,1.4508614409625262
2023-08-10 00:00:00,75.2353744506836,138.75033569335938,-1.7891249360948736,0.269,-1.0,1.4459879317498943
2023-08-11 00:00:00,75.52812194824219,135.95443725585938,-1.788179213369796,-0.66,0.0,1.457973484302376
2023-08-14 00:00:00,75.47933197021484,138.92942810058594,-1.7896478604068025,0.168,0.0,1.457973484302376
2023-08-15 00:00:00,74.79625701904297,138.17323303222656,-1.7919185410653977,0.258,0.0,1.457973484302376
2023-08-16 00:00:00,75.43053436279297,136.9494171142578,-1.7918858270168205,-0.39,0.0,1.457973484302376
2023-08-17 00:00:00,75.4598159790039,137.37725830078125,-1.7917851487057017,-0.243,0.0,1.457973484302376
2023-08-18 00:00:00,76.35755920410156,138.82992553710938,-1.7915269569414751,-0.239,0.0,1.457973484302376
2023-08-21 00:00:00,75.80134582519531,137.90460205078125,-1.7913272031908891,-0.168,0.0,1.457973484302376
2023-08-22 00:00:00,76.79667663574219,137.66580200195312,-1.789180407259332,-0.725,0.0,1.457973484302376
2023-08-23 00:00:00,76.9918441772461,137.1583709716797,-1.7859880055350708,-0.874,0.0,1.457973484302376
2023-08-24 00:00:00,76.88450622558594,136.56137084960938,-1.7824408889162482,-0.865,0.0,1.457973484302376
2023-08-25 00:00:00,77.24555969238281,137.67575073242188,-1.7795523502403965,-0.605,0.0,1.457973484302376
2023-08-28 00:00:00,76.91378021240234,138.13343811035156,-1.7780297262835119,-0.191,0.0,1.457973484302376
2023-08-29 00:00:00,76.86498260498047,140.2527618408203,-1.779033742846876,0.544,0.0,1.457973484302376
2023-08-30 00:00:00,76.16240692138672,141.32733154296875,-1.7827134263103839,1.23,0.0,1.457973484302376
2023-08-31 00:00:00,75.40126037597656,141.04873657226562,-1.7876877405807972,1.403,0.0,1.457973484302376
2023-09-01 00:00:00,74.13270568847656,141.2974853515625,-1.7950175525306264,1.958,-1.0,1.457973484302376
2023-09-05 00:00:00,72.28841400146484,135.7852783203125,-1.8001297631001016,1.146,-1.0,1.4676428758027669
2023-09-06 00:00:00,73.61552429199219,136.3623809814453,-1.8026817830257365,0.525,-1.0,1.4750749682386366
2023-09-07 00:00:00,74.14247131347656,135.49673461914062,-1.8027657229720762,-0.067,-1.0,1.4818434315414932
2023-09-08 00:00:00,74.76698303222656,135.01914978027344,-1.8007809231843956,-0.553,0.0,1.4872392851496579
2023-09-11 00:00:00,74.66939544677734,135.6658935546875,-1.7993502693863932,-0.322,0.0,1.4872392851496579
2023-09-12 00:00:00,74.63037872314453,133.16847229003906,-1.7957328918803503,-1.094,0.0,1.4872392851496579
2023-09-13 00:00:00,75.54763793945312,132.3326873779297,-1.7895002414221313,-1.75,1.0,1.4872392851496579
2023-09-14 00:00:00,76.79667663574219,133.71571350097656,-1.7823867216831173,-1.788,1.0,1.486109065123507
2023-09-15 00:00:00,76.71861267089844,133.12867736816406,-1.7752077418082344,-1.664,1.0,1.4864910098721522
2023-09-18 00:00:00,77.17724609375,131.82525634765625,-1.766481286179283,-1.996,1.0,1.4811057148301867
2023-09-19 00:00:00,77.0211181640625,131.54666137695312,-1.7581262038542627,-1.673,1.0,1.4835057787366366
2023-09-20 00:00:00,77.57733154296875,130.14373779296875,-1.7481464551860924,-2.022,1.0,1.4774604259101651
2023-09-21 00:00:00,76.50393676757812,127.64631652832031,-1.7380116102623575,-1.817,1.0,1.4780528242141513
2023-09-22 00:00:00,75.9281997680664,129.4770965576172,-1.7313910331642681,-0.884,1.0,1.4908301878809276
2023-09-25 00:00:00,75.53787994384766,131.38746643066406,-1.7284829771735992,-0.09,1.0,1.5015413847438248
2023-09-26 00:00:00,73.030029296875,127.9647216796875,-1.7274022678896854,0.25,0.0,1.5054409931470638
2023-09-27 00:00:00,72.36648559570312,127.38762664794922,-1.7273130119449525,0.426,0.0,1.5054409931470638
2023-09-28 00:00:00,71.69316864013672,129.90493774414062,-1.731070349666766,1.4,0.0,1.5054409931470638
2023-09-29 00:00:00,71.89808654785156,129.1487579345703,-1.7342250735673364,0.965,0.0,1.5054409931470638
2023-10-02 00:00:00,69.5463638305664,128.7209014892578,-1.7406890841382991,1.777,-1.0,1.5054409931470638
2023-10-03 00:00:00,70.1318588256836,128.0045166015625,-1.7456547335971144,1.177,-1.0,1.5137618631244836
2023-10-04 00:00:00,70.00499725341797,132.5515899658203,-1.7547769512378935,2.083,-1.0,1.4975910956424816
2023-10-05 00:00:00,70.39532470703125,130.67108154296875,-1.7615428814891116,1.247,-1.0,1.5095346721577911
2023-10-06 00:00:00,70.6100082397461,132.46205139160156,-1.7687932591317386,1.386,-1.0,1.5060342897243957
2023-10-09 00:00:00,71.27356719970703,128.1139678955078,-1.7700575609334968,0.041,-1.0,1.5281046991043001
2023-10-10 00:00:00,72.37623596191406,129.6263427734375,-1.7695635728829404,-0.066,-1.0,1.5296710872294887
2023-10-11 00:00:00,73.61552429199219,131.8551025390625,-1.768782538438836,-0.057,-1.0,1.5293152344601193
2023-10-12 00:00:00,72.99099731445312,129.40744018554688,-1.7666438605449553,-0.352,0.0,1.5339092955204365
2023-10-13 00:00:00,73.85948181152344,127.81547546386719,-1.761229442641073,-0.982,0.0,1.5339092955204365
2023-10-16 00:00:00,74.67916107177734,129.6959991455078,-1.7560000613717028,-0.758,0.0,1.5339092955204365
2023-10-17 00:00:00,74.3376235961914,130.79046630859375,-1.7529167804560932,-0.281,0.0,1.5339092955204365
2023-10-18 00:00:00,73.88874816894531,127.13888549804688,-1.7476168692060168,-0.818,0.0,1.5339092955204365
2023-10-19 00:00:00,73.4789047241211,123.71614074707031,-1.7395387752217177,-1.244,0.0,1.5339092955204365
2023-10-20 00:00:00,72.4347915649414,124.09423828125,-1.7337019424125724,-0.578,0.0,1.5339092955204365
2023-10-23 00:00:00,71.30284118652344,123.06940460205078,-1.7296827946409072,-0.238,0.0,1.5339092955204365
2023-10-24 00:00:00,72.5518798828125,122.2336196899414,-1.7232937899693197,-0.828,0.0,1.5339092955204365
2023-10-25 00:00:00,72.57140350341797,120.87049865722656,-1.7154773038873896,-0.983,0.0,1.5339092955204365
2023-10-26 00:00:00,73.27397918701172,121.39783477783203,-1.7072587740550405,-0.958,0.0,1.5339092955204365
2023-10-27 00:00:00,71.98590087890625,120.11431121826172,-1.700487966917291,-0.586,0.0,1.5339092955204365
2023-10-30 00:00:00,72.5518798828125,121.20878601074219,-1.694633820947053,-0.443,0.0,1.5339092955204365
2023-10-31 00:00:00,73.25301361083984,122.15401458740234,-1.6891516751273068,-0.415,0.0,1.5339092955204365
2023-11-01 00:00:00,74.62564086914062,122.35301971435547,-1.682018555510379,-0.804,0.0,1.5339092955204365
2023-11-02 00:00:00,74.23063659667969,124.2932357788086,-1.6777229256864084,-0.109,0.0,1.5339092955204365
2023-11-03 00:00:00,72.99626159667969,127.66622161865234,-1.679814690370947,1.13,0.0,1.5339092955204365
2023-11-06 00:00:00,71.92975616455078,127.1090316772461,-1.6842971305916374,1.275,0.0,1.5339092955204365
2023-11-07 00:00:00,71.30763244628906,127.16873168945312,-1.6900666567144007,1.369,0.0,1.5339092955204365
2023-11-08 00:00:00,70.06336975097656,128.90000915527344,-1.6995783882520614,1.992,-1.0,1.5339092955204365
2023-11-09 00:00:00,70.13249969482422,127.37000274658203,-1.7075354082508067,1.366,-1.0,1.542834152217166
2023-11-10 00:00:00,69.57949829101562,128.80999755859375,-1.7170495168823183,1.643,-1.0,1.5358973575285835
2023-11-13 00:00:00,68.07849884033203,129.27999877929688,-1.7293529658674154,1.952,-1.0,1.5269516646978785
2023-11-14 00:00:00,71.51500701904297,133.50999450683594,-1.7396537219034447,1.348,-1.0,1.5364491281442618
2023-11-15 00:00:00,71.46562957763672,133.6199951171875,-1.7489825212146006,1.213,-1.0,1.5382695696372846
2023-11-16 00:00:00,71.48538208007812,135.16000366210938,-1.7589670496577268,1.311,-1.0,1.5352350253218394
2023-11-17 00:00:00,71.07063293457031,135.8699951171875,-1.7698341270930995,1.405,-1.0,1.532685118054172
2023-11-20 00:00:00,70.8237533569336,135.55999755859375,-1.7802335354147407,1.238,-1.0,1.5350149614284114
2023-11-21 00:00:00,70.90275573730469,136.5800018310547,-1.7906884987232856,1.266,-1.0,1.534491043288193
2023-11-22 00:00:00,72.7296371459961,136.63999938964844,-1.7971083694975793,0.568,-1.0,1.5482497439222882
2023-11-24 00:00:00,72.34451293945312,136.4499969482422,-1.802713794815058,0.599,-1.0,1.5478878185860963
2023-11-27 00:00:00,72.82838439941406,137.2899932861328,-1.8076972149411206,0.5,-1.0,1.5493573560801792
2023-11-28 00:00:00,73.4110107421875,138.0800018310547,-1.8119055123015315,0.37,-1.0,1.5514678388703167
2023-11-29 00:00:00,73.18388366699219,139.5500030517578,-1.817548200413767,0.622,-1.0,1.5460798437075334
2023-11-30 00:00:00,74.0035171508789,141.99000549316406,-1.8240245120279133,0.673,-1.0,1.544379291161273
2023-12-01 00:00:00,74.14176940917969,143.6300048828125,-1.8315822969194504,0.782,-1.0,1.5414179557999113
2023-12-04 00:00:00,74.1516342163086,143.14999389648438,-1.838276060914488,0.549,-1.0,1.5449763490428747
2023-12-05 00:00:00,73.88501739501953,142.64999389648438,-1.8442704732969968,0.429,-1.0,1.5465997240777511
2023-12-06 00:00:00,75.25764465332031,142.6999969482422,-1.8471543817155611,-0.135,-1.0,1.5561787422965754
2023-12-07 00:00:00,75.09964752197266,144.97999572753906,-1.8517726610159164,0.264,-1.0,1.5483454997535562
2023-12-08 00:00:00,74.35901641845703,143.97999572753906,-1.8567610231132834,0.224,-1.0,1.5483435471341456
2023-12-11 00:00:00,74.70464324951172,145.83999633789062,-1.8626707902607613,0.353,-1.0,1.5456179542436455
2023-12-12 00:00:00,73.27275848388672,145.3699951171875,-1.870530848523836,0.664,-1.0,1.5398777475289425
2023-12-13 00:00:00,76.176025390625,147.47000122070312,-1.8748481999296303,-0.244,0.0,1.552484251274815
2023-12-14 00:00:00,73.7763900756836,149.14999389648438,-1.8843174181731952,1.073,0.0,1.552484251274815
2023-12-15 00:00:00,72.79875946044922,148.67999267578125,-1.8955062932104145,1.188,0.0,1.552484251274815
2023-12-18 00:00:00,71.65325164794922,148.75,-1.9084948811593945,1.517,-1.0,1.552484251274815
2023-12-19 00:00:00,71.77175903320312,149.50999450683594,-1.9214710442644358,1.387,-1.0,1.553867251574115
2023-12-20 00:00:00,69.84613037109375,146.32000732421875,-1.9340541287373743,1.356,-1.0,1.5551779093332665
2023-12-21 00:00:00,69.92512512207031,147.75,-1.947000939221164,1.547,-1.0,1.5538678963140589
2023-12-22 00:00:00,70.24112701416016,148.75,-1.9595272833847355,1.258,-1.0,1.5555967330091767
2023-12-26 00:00:00,70.4583740234375,149.69000244140625,-1.9716209189370062,1.049,-1.0,1.5567671712028517
2023-12-27 00:00:00,69.91525268554688,150.16000366210938,-1.9843514330123042,1.247,-1.0,1.5545145525353667
2023-12-28 00:00:00,70.94225311279297,150.3800048828125,-1.9944741261402348,0.192,-1.0,1.563203467271248
2023-12-29 00:00:00,70.94225311279297,149.5500030517578,-2.002484735696648,-0.397,0.0,1.5679985318161132
2024-01-02 00:00:00,72.29513549804688,147.27999877929688,-2.0043998088274644,-2.27,1.0,1.5679985318161132
2024-01-03 00:00:00,73.09500885009766,145.6199951171875,-2.001580104265373,-2.918,1.0,1.5575261228774842
2024-01-04 00:00:00,73.3912582397461,144.91000366210938,-1.9966664748899885,-2.746,1.0,1.55429281428738
2024-01-05 00:00:00,73.40113830566406,145.94000244140625,-1.9927202157415886,-2.116,1.0,1.5587414665740575
2024-01-08 00:00:00,73.55913543701172,147.38999938964844,-1.9904255773369979,-1.623,1.0,1.5631796109108382
2024-01-09 00:00:00,72.98638916015625,146.22999572753906,-1.9886241327195073,-1.485,1.0,1.5635622349339648
2024-01-10 00:00:00,72.61112976074219,147.2899932861328,-1.988890633130451,-0.961,1.0,1.5696879199635796
2024-01-11 00:00:00,70.14237213134766,146.38999938964844,-1.993637835958095,0.017,1.0,1.5825347019430513
2024-01-12 00:00:00,70.35962677001953,145.5500030517578,-1.997685508659725,-0.383,1.0,1.5770894686572872
2024-01-16 00:00:00,68.98699951171875,143.75999450683594,-2.00227889881402,-0.214,1.0,1.579342766438827
2024-01-17 00:00:00,69.00674438476562,143.0800018310547,-2.005939971539,-0.459,1.0,1.5758892871303
2024-01-18 00:00:00,68.42411804199219,144.9499969482422,-2.012271443635798,0.203,0.0,1.5851077367146167
2024-01-19 00:00:00,68.7598648071289,141.38999938964844,-2.014386830903894,-0.901,0.0,1.5851077367146167
2024-01-22 00:00:00,68.53274536132812,142.13999938964844,-2.0167091949023743,-0.604,0.0,1.5851077367146167
2024-01-23 00:00:00,68.7598648071289,142.44000244140625,-2.018753434461504,-0.646,0.0,1.5851077367146167
2024-01-24 00:00:00,67.34774017333984,141.02999877929688,-2.0220874073932933,-0.32,0.0,1.5851077367146167
2024-01-25 00:00:00,69.11537170410156,142.7899932861328,-2.023593979414381,-0.776,0.0,1.5851077367146167
2024-01-26 00:00:00,70.4781265258789,143.0399932861328,-2.022006096891784,-1.327,0.0,1.5851077367146167
2024-01-29 00:00:00,69.38200378417969,142.86000061035156,-2.0219788116542685,-0.792,0.0,1.5851077367146167
2024-01-30 00:00:00,69.53999328613281,143.07000732421875,-2.0221743605952214,-0.789,0.0,1.5851077367146167
2024-01-31 00:00:00,68.9000015258789,141.0399932861328,-2.021640971726038,-0.912,0.0,1.5851077367146167
2024-02-01 00:00:00,70.12999725341797,141.5,-2.0188877259499365,-1.267,0.0,1.5851077367146167
2024-02-02 00:00:00,68.69999694824219,140.08999633789062,-2.0173882296898866,-0.865,0.0,1.5851077367146167
2024-02-05 00:00:00,67.80999755859375,137.57000732421875,-2.0155100475424157,-0.946,0.0,1.5851077367146167
2024-02-06 00:00:00,68.08000183105469,139.88999938964844,-2.015526991636418,-0.489,0.0,1.5851077367146167
2024-02-07 00:00:00,67.23999786376953,139.3699951171875,-2.0171765082551243,-0.186,0.0,1.5851077367146167
2024-02-08 00:00:00,66.38999938964844,138.6300048828125,-2.020088059981943,0.066,0.0,1.5851077367146167
2024-02-09 00:00:00,67.0,139.5800018310547,-2.02278476347445,-0.0,0.0,1.5851077367146167
2024-02-12 00:00:00,68.08999633789062,140.89999389648438,-2.024321172542148,-0.223,0.0,1.5851077367146167
