Date,x,y,hr,zScore,numUnits,cum rets
2022-05-02 00:00:00,126.66414642333984,204.71669006347656,-1.6291437067368897,-0.766,0.0,1.0
2022-05-03 00:00:00,128.8108367919922,210.03004455566406,-1.6281260709109027,-0.428,0.0,1.0
2022-05-04 00:00:00,132.80442810058594,217.83758544921875,-1.628193746315051,-0.22,0.0,1.0
2022-05-05 00:00:00,127.22499084472656,212.12286376953125,-1.6306284360693133,0.271,0.0,1.0
2022-05-06 00:00:00,124.2853775024414,208.45323181152344,-1.6338325461305667,0.379,0.0,1.0
2022-05-09 00:00:00,123.50823211669922,208.29078674316406,-1.6375934815343596,0.478,0.0,1.0
2022-05-10 00:00:00,121.46823120117188,204.50645446777344,-1.6408004341098772,0.329,0.0,1.0
2022-05-11 00:00:00,120.74935913085938,201.55352783203125,-1.6424938724267277,-0.005,0.0,1.0
2022-05-12 00:00:00,119.79735565185547,205.22315979003906,-1.6474902987698097,0.702,0.0,1.0
2022-05-13 00:00:00,118.86477661132812,206.885986328125,-1.6545994425337518,1.024,0.0,1.0
2022-05-16 00:00:00,117.02875518798828,207.22044372558594,-1.6636833186750375,1.307,0.0,1.0
2022-05-17 00:00:00,120.77850341796875,213.46075439453125,-1.6722420746431033,1.089,0.0,1.0
2022-05-18 00:00:00,116.1447525024414,206.79994201660156,-1.6808266723734657,1.042,0.0,1.0
2022-05-19 00:00:00,119.1659164428711,206.8480682373047,-1.6852488754571076,0.099,0.0,1.0
2022-05-20 00:00:00,116.2613296508789,201.9709930419922,-1.6889304744721567,-0.04,0.0,1.0
2022-05-23 00:00:00,119.30192565917969,204.24119567871094,-1.690246874038941,-0.632,0.0,1.0
2022-05-24 00:00:00,117.990478515625,203.8563995361328,-1.69250781667293,-0.39,0.0,1.0
2022-05-25 00:00:00,119.8847885131836,207.02122497558594,-1.694647718215141,-0.516,0.0,1.0
2022-05-26 00:00:00,122.69223022460938,210.92674255371094,-1.6959976437585564,-0.834,0.0,1.0
2022-05-27 00:00:00,126.315673828125,214.41860961914062,-1.695298719863548,-1.395,0.0,1.0
2022-05-31 00:00:00,122.87680053710938,213.4374237060547,-1.6978430640194804,-0.399,0.0,1.0
2022-06-01 00:00:00,121.7887954711914,208.7046356201172,-1.698472524050828,-1.002,0.0,1.0
2022-06-02 00:00:00,125.11111450195312,212.10032653808594,-1.6972982520469242,-1.39,0.0,1.0
2022-06-03 00:00:00,121.87621307373047,211.8117218017578,-1.6996713133695114,-0.327,0.0,1.0
2022-06-06 00:00:00,123.49851989746094,213.1295928955078,-1.7011832683239252,-0.628,0.0,1.0
2022-06-07 00:00:00,125.10137939453125,216.13088989257812,-1.702670208804652,-0.578,0.0,1.0
2022-06-08 00:00:00,123.38194274902344,212.82177734375,-1.7037599445230158,-0.664,0.0,1.0
2022-06-09 00:00:00,120.44821166992188,210.34954833984375,-1.7064737636947496,-0.049,0.0,1.0
2022-06-10 00:00:00,112.58930206298828,201.39381408691406,-1.7122459065449842,0.942,0.0,1.0
2022-06-13 00:00:00,110.06358337402344,198.1039276123047,-1.7186331537865311,1.076,0.0,1.0
2022-06-14 00:00:00,108.32471466064453,197.748046875,-1.7265032247686665,1.607,-1.0,1.0
2022-06-15 00:00:00,110.37443542480469,196.08383178710938,-1.7302551528589454,0.054,-1.0,1.0145124397174634
2022-06-16 00:00:00,105.40068817138672,184.52122497558594,-1.7311958898913635,-0.776,0.0,1.0228393845154944
2022-06-17 00:00:00,106.87725830078125,188.28244018554688,-1.7326538286736595,-0.508,0.0,1.0228393845154944
2022-06-21 00:00:00,107.44070434570312,190.0235595703125,-1.7346186591102404,-0.418,0.0,1.0228393845154944
2022-06-22 00:00:00,109.51956939697266,189.1193389892578,-1.7331954706280033,-1.673,1.0,1.0228393845154944
2022-06-23 00:00:00,111.09329986572266,188.3690185546875,-1.7289727858603083,-2.321,1.0,1.0149308021869792
2022-06-24 00:00:00,117.5533447265625,194.1887969970703,-1.7208890246435664,-2.919,1.0,1.003835326928861
2022-06-27 00:00:00,117.8350601196289,196.30511474609375,-1.7142958101563646,-2.121,1.0,1.0098819566725348
2022-06-28 00:00:00,115.863037109375,193.4577178955078,-1.7088223275993755,-1.722,1.0,1.012864245613815
2022-06-29 00:00:00,113.86188507080078,191.30294799804688,-1.70484997878471,-1.289,1.0,1.0173194913629722
2022-06-30 00:00:00,111.07386779785156,189.53297424316406,-1.7035410353663711,-0.642,1.0,1.025579693154326
2022-07-01 00:00:00,114.49332427978516,190.69692993164062,-1.699210986910241,-1.375,1.0,1.014767185628683
2022-07-05 00:00:00,115.36760711669922,191.13943481445312,-1.6941595918231587,-1.381,1.0,1.0135764717631774
2022-07-06 00:00:00,115.98932647705078,191.1009521484375,-1.6886637474189519,-1.408,1.0,1.01240243338409
2022-07-07 00:00:00,115.6978988647461,193.67898559570312,-1.685832464772508,-0.685,1.0,1.021143109014995
2022-07-08 00:00:00,114.50303649902344,190.48532104492188,-1.6826626767722763,-0.818,1.0,1.0190124418472906
2022-07-11 00:00:00,110.90872192382812,190.36024475097656,-1.6840524514271202,0.49,0.0,1.034308778471362
2022-07-12 00:00:00,112.71559143066406,191.96670532226562,-1.6847661751460805,0.174,0.0,1.034308778471362
2022-07-13 00:00:00,112.40473175048828,189.66766357421875,-1.684045657459173,-0.199,0.0,1.034308778471362
2022-07-14 00:00:00,111.55958557128906,188.58062744140625,-1.6834760706238328,-0.086,0.0,1.034308778471362
2022-07-15 00:00:00,113.4636001586914,190.34100341796875,-1.6819062099024584,-0.35,0.0,1.034308778471362
2022-07-18 00:00:00,111.62759399414062,192.6881561279297,-1.684361098656758,0.827,0.0,1.034308778471362
2022-07-19 00:00:00,116.3487548828125,199.65269470214844,-1.6863196497785402,0.524,0.0,1.034308778471362
2022-07-20 00:00:00,116.6693344116211,199.91241455078125,-1.6878468998303022,0.435,0.0,1.034308778471362
2022-07-21 00:00:00,119.43791961669922,203.75059509277344,-1.6885811830560287,0.22,0.0,1.034308778471362
2022-07-22 00:00:00,124.08139038085938,205.15504455566406,-1.6844815288330155,-1.103,0.0,1.034308778471362
2022-07-25 00:00:00,123.24594116210938,206.0303955078125,-1.6819144731871438,-0.478,0.0,1.034308778471362
2022-07-26 00:00:00,122.61451721191406,207.77157592773438,-1.6817674031252596,0.176,0.0,1.034308778471362
2022-07-27 00:00:00,123.30423736572266,210.92674255371094,-1.6833164431528944,0.588,0.0,1.034308778471362
2022-07-28 00:00:00,126.63624572753906,213.17770385742188,-1.6824978727809974,-0.141,0.0,1.034308778471362
2022-07-29 00:00:00,125.59680938720703,215.5248565673828,-1.684425202536534,0.753,0.0,1.034308778471362
2022-08-01 00:00:00,125.61624145507812,215.4767608642578,-1.6863915982665176,0.745,0.0,1.034308778471362
2022-08-02 00:00:00,123.0322265625,213.1873321533203,-1.689641806441343,1.227,0.0,1.034308778471362
2022-08-03 00:00:00,124.57682800292969,214.66873168945312,-1.6919343372079496,1.019,0.0,1.034308778471362
2022-08-04 00:00:00,124.46996307373047,214.57254028320312,-1.6939845467196633,0.996,0.0,1.034308778471362
2022-08-05 00:00:00,123.7219467163086,214.5148162841797,-1.6966749769140685,1.201,0.0,1.034308778471362
2022-08-08 00:00:00,124.62537384033203,215.88079833984375,-1.6990724524334393,1.054,0.0,1.034308778471362
2022-08-09 00:00:00,124.1568374633789,213.04302978515625,-1.6998036989424732,0.484,0.0,1.034308778471362
2022-08-10 00:00:00,130.3553924560547,218.1605987548828,-1.6965460185415706,-0.879,0.0,1.034308778471362
2022-08-11 00:00:00,130.16015625,220.03640747070312,-1.694739683104301,-0.235,0.0,1.034308778471362
2022-08-12 00:00:00,132.31748962402344,222.55670166015625,-1.6924637004189669,-0.574,0.0,1.034308778471362
2022-08-15 00:00:00,133.13743591308594,221.79678344726562,-1.6888964547768077,-1.155,0.0,1.034308778471362
2022-08-16 00:00:00,133.93789672851562,224.4709930419922,-1.6864512605051019,-0.682,0.0,1.034308778471362
2022-08-17 00:00:00,130.98988342285156,222.7683563232422,-1.6865534372164748,0.355,0.0,1.034308778471362
2022-08-18 00:00:00,130.2968292236328,224.46214294433594,-1.6888124655722556,1.155,0.0,1.034308778471362
2022-08-19 00:00:00,128.7935791015625,222.73931884765625,-1.691616311229372,1.239,0.0,1.034308778471362
2022-08-22 00:00:00,124.19588470458984,216.4674072265625,-1.6952469104074561,1.519,-1.0,1.034308778471362
2022-08-23 00:00:00,124.6058578491211,215.93508911132812,-1.6978231783796487,0.956,-1.0,1.0379306833801338
2022-08-24 00:00:00,124.957275390625,216.7577667236328,-1.7002414234692047,0.875,-1.0,1.038108087475754
2022-08-25 00:00:00,129.00830078125,220.6099395751953,-1.7003858391642235,-0.288,0.0,1.0450498166391962
2022-08-26 00:00:00,123.03426361083984,213.17657470703125,-1.7021548555982358,0.658,0.0,1.0450498166391962
2022-08-29 00:00:00,122.9366455078125,214.3090057373047,-1.7048102521862347,0.981,0.0,1.0450498166391962
2022-08-30 00:00:00,124.73275756835938,211.25050354003906,-1.7031714776349582,-1.186,0.0,1.0450498166391962
2022-08-31 00:00:00,123.95185089111328,210.8633575439453,-1.7019147364294063,-0.769,0.0,1.0450498166391962
2022-09-01 00:00:00,121.57003021240234,208.09521484375,-1.7016724060883457,-0.312,0.0,1.0450498166391962
2022-09-02 00:00:00,120.80863952636719,206.5562744140625,-1.701377415750734,-0.354,0.0,1.0450498166391962
2022-09-06 00:00:00,120.74029541015625,210.137451171875,-1.7036343675533903,0.907,0.0,1.0450498166391962
2022-09-07 00:00:00,124.79132843017578,216.29319763183594,-1.7054328899947593,0.541,0.0,1.0450498166391962
2022-09-08 00:00:00,124.71324920654297,215.20916748046875,-1.7063829394772425,0.142,0.0,1.0450498166391962
2022-09-09 00:00:00,125.05490112304688,216.2544708251953,-1.7074885463527054,0.206,0.0,1.0450498166391962
2022-09-12 00:00:00,128.442138671875,217.62887573242188,-1.7054996513451774,-1.447,0.0,1.0450498166391962
2022-09-13 00:00:00,121.52122497558594,210.23423767089844,-1.706410170023146,0.25,0.0,1.0450498166391962
2022-09-14 00:00:00,117.29448699951172,209.76962280273438,-1.7121598783471756,2.372,-1.0,1.0450498166391962
2022-09-15 00:00:00,117.56780242919922,207.9306640625,-1.7163344474924127,1.273,-1.0,1.0518782321703097
2022-09-16 00:00:00,114.67839050292969,208.5404510498047,-1.7239062593250183,2.576,-1.0,1.0403069540534358
2022-09-19 00:00:00,116.38666534423828,213.63150024414062,-1.732728453599162,2.551,-1.0,1.0376116418548136
2022-09-20 00:00:00,113.8779525756836,210.26327514648438,-1.741685704376652,2.287,-1.0,1.0377128170624033
2022-09-21 00:00:00,110.59808349609375,208.85983276367188,-1.7530380729144952,2.655,-1.0,1.0301310281431895
2022-09-22 00:00:00,109.25098419189453,204.14622497558594,-1.762155123387587,1.735,-1.0,1.0385717819461315
2022-09-23 00:00:00,109.64144897460938,199.8197784423828,-1.7668177725902652,0.501,-1.0,1.0526129936978106
2022-09-26 00:00:00,108.51887512207031,200.00369262695312,-1.7722472344757687,0.818,-1.0,1.0485905770166766
2022-09-27 00:00:00,108.41149139404297,197.7582244873047,-1.7758800011412106,0.263,-1.0,1.0548654720327186
2022-09-28 00:00:00,110.59808349609375,201.39744567871094,-1.7788789229155797,0.092,-1.0,1.0563111489802945
2022-09-29 00:00:00,108.94837951660156,196.248291015625,-1.7799703872971946,-0.464,0.0,1.0622916838258856
2022-09-30 00:00:00,108.0503158569336,194.8835906982422,-1.7809489992432102,-0.472,0.0,1.0622916838258856
2022-10-03 00:00:00,111.46685028076172,200.3134002685547,-1.7813601691397227,-0.701,0.0,1.0622916838258856
2022-10-04 00:00:00,116.3085708618164,207.5338134765625,-1.7806474148250215,-1.059,0.0,1.0622916838258856
2022-10-05 00:00:00,117.3628158569336,207.12733459472656,-1.7782061548043304,-1.493,0.0,1.0622916838258856
2022-10-06 00:00:00,114.92243194580078,206.9434356689453,-1.7788288756805513,-0.48,0.0,1.0622916838258856
2022-10-07 00:00:00,111.64256286621094,202.82022094726562,-1.780981653064233,-0.116,0.0,1.0622916838258856
2022-10-10 00:00:00,108.10888671875,202.56857299804688,-1.7875752860785068,1.135,0.0,1.0622916838258856
2022-10-11 00:00:00,108.11864471435547,202.32659912109375,-1.7939596229921584,0.87,0.0,1.0622916838258856
2022-10-12 00:00:00,107.07416534423828,201.1167449951172,-1.8003302228682825,0.829,0.0,1.0622916838258856
2022-10-13 00:00:00,109.54383087158203,205.54965209960938,-1.8061994547313278,0.634,0.0,1.0622916838258856
2022-10-14 00:00:00,107.69889831542969,202.8686065673828,-1.8120384550996211,0.609,0.0,1.0622916838258856
2022-10-17 00:00:00,110.60783386230469,205.6754913330078,-1.8155747031276976,-0.059,0.0,1.0622916838258856
2022-10-18 00:00:00,113.9560317993164,209.6825408935547,-1.8170156984255836,-0.625,0.0,1.0622916838258856
2022-10-19 00:00:00,111.90612030029297,206.83694458007812,-1.8187562405547375,-0.495,0.0,1.0622916838258856
2022-10-20 00:00:00,105.82469177246094,196.61607360839844,-1.8210194539549691,-0.372,0.0,1.0622916838258856
2022-10-21 00:00:00,109.9050064086914,201.0780487060547,-1.8209427477070521,-1.109,0.0,1.0622916838258856
2022-10-24 00:00:00,109.28026580810547,205.88844299316406,-1.8250696084068352,0.246,0.0,1.0622916838258856
2022-10-25 00:00:00,110.26618194580078,211.23114013671875,-1.8319916887982366,0.888,0.0,1.0622916838258856
2022-10-26 00:00:00,110.1295166015625,209.30506896972656,-1.8374016446788157,0.297,0.0,1.0622916838258856
2022-10-27 00:00:00,109.68048858642578,208.06617736816406,-1.8418874506855263,0.047,0.0,1.0622916838258856
2022-10-28 00:00:00,111.43757629394531,212.49908447265625,-1.8467971097143077,0.159,0.0,1.0622916838258856
2022-10-31 00:00:00,111.45708465576172,214.91879272460938,-1.8531310045229215,0.565,0.0,1.0622916838258856
2022-11-01 00:00:00,111.28138732910156,214.7445526123047,-1.8592071633294207,0.436,0.0,1.0622916838258856
2022-11-02 00:00:00,107.45486450195312,212.96365356445312,-1.868770873518124,1.49,0.0,1.0622916838258856
2022-11-03 00:00:00,107.09368896484375,213.5927734375,-1.8789632013151447,1.51,-1.0,1.0622916838258856
2022-11-04 00:00:00,112.70655822753906,221.78109741210938,-1.886617664961944,0.726,-1.0,1.0697056934532254
2022-11-07 00:00:00,113.5655746459961,221.73268127441406,-1.8920642570961292,0.174,-1.0,1.0749451927096345
2022-11-08 00:00:00,113.6827163696289,221.21969604492188,-1.896235143454103,-0.087,-1.0,1.077712622707946
2022-11-09 00:00:00,112.05362701416016,220.06793212890625,-1.9013553419058873,0.375,-1.0,1.0745642332792333
2022-11-10 00:00:00,122.48566436767578,228.44981384277344,-1.8975951786886966,-2.615,1.0,1.0984155815064396
2022-11-11 00:00:00,127.66735076904297,226.78506469726562,-1.8847663482565555,-3.824,1.0,1.0773212368433411
2022-11-14 00:00:00,125.57699584960938,226.2430419921875,-1.8747509953159776,-2.5,1.0,1.0874053219095006
2022-11-15 00:00:00,127.08833312988281,228.72080993652344,-1.8657759889315617,-2.119,1.0,1.0890904646047743
2022-11-16 00:00:00,126.58782958984375,226.4656524658203,-1.8568492082738097,-1.969,1.0,1.0886759470826484
2022-11-17 00:00:00,124.30121612548828,226.84312438964844,-1.8520992057696577,-1.09,1.0,1.1000831682163577
2022-11-18 00:00:00,126.0775146484375,230.38101196289062,-1.848401582335876,-0.945,1.0,1.1016242955073081
2022-11-21 00:00:00,126.6467056274414,230.58567810058594,-1.844561610415231,-0.974,1.0,1.100846370551832
2022-11-22 00:00:00,129.53196716308594,233.55825805664062,-1.8394214939515028,-1.2,1.0,1.097277963816416
2022-11-23 00:00:00,130.58201599121094,235.0494384765625,-1.8343474610075303,-1.114,1.0,1.097746324141989
2022-11-25 00:00:00,130.87644958496094,236.61859130859375,-1.8304907656892582,-0.847,1.0,1.1009673503295831
2022-11-28 00:00:00,127.8734359741211,232.67137145996094,-1.8281922634003809,-0.538,1.0,1.1049199535300398
2022-11-29 00:00:00,129.37493896484375,233.1099395751953,-1.8246640367185574,-0.764,1.0,1.1009768597709337
2022-11-30 00:00:00,132.70181274414062,234.49391174316406,-1.8181379158729247,-1.249,1.0,1.0929467737826133
2022-12-01 00:00:00,132.4466552734375,235.99481201171875,-1.8132998005878644,-0.818,1.0,1.0984188887346715
2022-12-02 00:00:00,134.74305725097656,238.74325561523438,-1.8081236955444169,-0.87,1.0,1.0969300535442248
2022-12-05 00:00:00,132.08352661132812,233.5972442626953,-1.8031828874217903,-0.779,1.0,1.0975984930690432
2022-12-06 00:00:00,129.5810089111328,231.08274841308594,-1.8000631525116357,-0.407,1.0,1.1027720220893673
2022-12-07 00:00:00,127.0294418334961,230.2348175048828,-1.7999093965337454,0.149,1.0,1.110975937778127
2022-12-08 00:00:00,127.93232727050781,228.21734619140625,-1.7975826430928599,-0.316,1.0,1.1036755962370557
2022-12-09 00:00:00,127.98137664794922,227.90545654296875,-1.7949912408669646,-0.313,1.0,1.1035261117230677
2022-12-12 00:00:00,129.85581970214844,229.69874572753906,-1.7915465946352482,-0.442,1.0,1.1010949816476556
2022-12-13 00:00:00,131.5732421875,230.21533203125,-1.7866168791269976,-0.678,1.0,1.09698646304582
2022-12-14 00:00:00,130.29742431640625,227.0867919921875,-1.7814284480471896,-0.659,1.0,1.0966094982996037
2022-12-15 00:00:00,126.3719253540039,224.48455810546875,-1.7796095300879415,0.078,1.0,1.1068917764897928
2022-12-16 00:00:00,123.8203353881836,219.99154663085938,-1.778275522859897,0.146,1.0,1.107375670419525
2022-12-19 00:00:00,123.29039764404297,218.44190979003906,-1.7766837739921817,0.127,1.0,1.1064361878949938
2022-12-20 00:00:00,122.43659973144531,218.9681854248047,-1.7765766734542885,0.514,0.0,1.11114725915782
2022-12-21 00:00:00,124.78208923339844,223.42222595214844,-1.7768077256544201,0.666,0.0,1.11114725915782
2022-12-22 00:00:00,123.51611328125,219.552978515625,-1.7759530975454572,0.508,0.0,1.11114725915782
2022-12-23 00:00:00,124.360107421875,221.96029663085938,-1.775685598294004,0.823,0.0,1.11114725915782
2022-12-27 00:00:00,124.06568145751953,223.8705291748047,-1.7771466434728567,1.422,0.0,1.11114725915782
2022-12-28 00:00:00,121.95571899414062,220.7127685546875,-1.7790502997539086,1.559,-1.0,1.11114725915782
2022-12-29 00:00:00,124.04605865478516,224.3675994873047,-1.7807953071450797,1.599,-1.0,1.1117771036697797
2022-12-30 00:00:00,123.39834594726562,222.69125366210938,-1.782023371771898,1.337,-1.0,1.1133009592333918
2023-01-03 00:00:00,124.47785949707031,223.55865478515625,-1.7823798353548463,1.074,-1.0,1.1157720551234043
2023-01-04 00:00:00,127.54957580566406,226.42404174804688,-1.7808464478585133,0.336,-1.0,1.1210942633520007
2023-01-05 00:00:00,120.81732177734375,224.21165466308594,-1.7859460004704704,2.776,-1.0,1.1002739807016688
2023-01-06 00:00:00,126.10694885253906,231.3848876953125,-1.7896873685024064,1.898,-1.0,1.1062807769036
2023-01-09 00:00:00,126.47004699707031,234.29898071289062,-1.7945208503751866,2.132,-1.0,1.1026971181749738
2023-01-10 00:00:00,127.36309051513672,238.2169647216797,-1.8006095604926182,2.261,-1.0,1.0994035069946384
2023-01-11 00:00:00,129.63009643554688,240.6632537841797,-1.8051596265835492,1.586,-1.0,1.1040921253294138
2023-01-12 00:00:00,129.16883850097656,241.94003295898438,-1.8105870965603124,1.776,-1.0,1.101132206357801
2023-01-13 00:00:00,129.93431091308594,242.49554443359375,-1.8150453931878883,1.361,-1.0,1.1040793812457763
2023-01-17 00:00:00,128.1874542236328,239.15260314941406,-1.818901251487877,1.136,-1.0,1.105490712002975
2023-01-18 00:00:00,125.40035247802734,234.7765655517578,-1.8228390403669537,1.115,-1.0,1.105059892305926
2023-01-19 00:00:00,121.29820251464844,228.5389862060547,-1.8273029570337433,1.196,-1.0,1.1035082841181976
2023-01-20 00:00:00,128.5603790283203,232.3594970703125,-1.8250441895066656,-0.904,0.0,1.123121850842859
2023-01-23 00:00:00,127.8734359741211,232.76882934570312,-1.8234929885669353,-0.511,0.0,1.123121850842859
2023-01-24 00:00:00,128.53094482421875,234.84478759765625,-1.8227351489207222,-0.33,0.0,1.123121850842859
2023-01-25 00:00:00,125.76345825195312,234.51339721679688,-1.825301105082114,0.707,0.0,1.123121850842859
2023-01-26 00:00:00,125.32184600830078,236.706298828125,-1.8299828604999189,1.245,0.0,1.123121850842859
2023-01-27 00:00:00,124.97836303710938,238.24620056152344,-1.8359333767758004,1.499,0.0,1.123121850842859
2023-01-30 00:00:00,125.27277374267578,236.35543823242188,-1.8398533952489111,0.735,0.0,1.123121850842859
2023-01-31 00:00:00,127.91267395019531,242.41758728027344,-1.8440669656242898,0.848,0.0,1.123121850842859
2023-02-01 00:00:00,129.55157470703125,244.01597595214844,-1.846972851577838,0.353,0.0,1.123121850842859
2023-02-02 00:00:00,131.926513671875,251.423095703125,-1.8515302572957364,0.946,0.0,1.123121850842859
2023-02-03 00:00:00,128.29541015625,253.07017517089844,-1.8614591816546526,2.678,-1.0,1.123121850842859
2023-02-06 00:00:00,127.0294418334961,250.88705444335938,-1.8711343892347854,2.167,-1.0,1.1252824320646593
2023-02-07 00:00:00,128.82537841796875,247.8852081298828,-1.875674910807345,0.356,-1.0,1.139474340753452
2023-02-08 00:00:00,127.95195007324219,244.8249053955078,-1.878400726920543,-0.149,-1.0,1.1431242135873103
2023-02-09 00:00:00,126.46024322509766,242.93414306640625,-1.8813423613549056,-0.033,-1.0,1.1420027369529138
2023-02-10 00:00:00,123.87922668457031,244.95159912109375,-1.8886898892821906,1.49,-1.0,1.1295517790569936
2023-02-13 00:00:00,126.34247589111328,248.67465209960938,-1.895201659357538,0.966,-1.0,1.1331410136664446
2023-02-14 00:00:00,127.36309051513672,245.79953002929688,-1.8978405724634264,-0.467,0.0,1.1436955594151246
2023-02-15 00:00:00,128.59963989257812,247.36865234375,-1.8993757789019692,-0.734,0.0,1.1436955594151246
2023-02-16 00:00:00,127.34736633300781,246.04318237304688,-1.90138652312376,-0.515,0.0,1.1436955594151246
2023-02-17 00:00:00,128.0967559814453,245.87747192382812,-1.9021967830329647,-0.966,0.0,1.1436955594151246
2023-02-21 00:00:00,124.43853759765625,239.7666015625,-1.9034008682331915,-0.776,0.0,1.1436955594151246
2023-02-22 00:00:00,126.87407684326172,239.6292724609375,-1.9013230755327355,-1.911,1.0,1.1436955594151246
2023-02-23 00:00:00,126.38105010986328,241.5522003173828,-1.901052739615227,-1.189,1.0,1.1497031160312
2023-02-24 00:00:00,127.8995590209961,242.1016082763672,-1.8993946012737661,-1.633,1.0,1.145321391667323
2023-02-27 00:00:00,129.7730255126953,242.18008422851562,-1.895415135929484,-2.159,1.0,1.1392504593481065
2023-02-28 00:00:00,130.2167510986328,243.97544860839844,-1.8922213004413748,-1.686,1.0,1.142044673695902
2023-03-01 00:00:00,131.37042236328125,242.6117401123047,-1.8870085099100449,-2.118,1.0,1.1362101135818778
2023-03-02 00:00:00,132.95794677734375,244.21092224121094,-1.881156474828174,-2.034,1.0,1.1349590852105713
2023-03-03 00:00:00,135.5413818359375,245.3686065673828,-1.8733295224403352,-2.287,1.0,1.129668920844217
2023-03-06 00:00:00,131.7747039794922,243.59283447265625,-1.8695546836746826,-1.127,1.0,1.1414616576396748
2023-03-07 00:00:00,129.08279418945312,242.32723999023438,-1.868968562923163,-0.387,1.0,1.149408108538299
2023-03-08 00:00:00,129.3786163330078,242.40574645996094,-1.8683984408389174,-0.432,1.0,1.1485806266860066
2023-03-09 00:00:00,125.62179565429688,242.25856018066406,-1.8724501480867044,0.753,0.0,1.1619070083964713
2023-03-10 00:00:00,124.24134063720703,235.61663818359375,-1.873876643105438,-0.065,0.0,1.1619070083964713
2023-03-13 00:00:00,122.96934509277344,233.06582641601562,-1.8748438429555003,-0.136,0.0,1.1619070083964713
2023-03-14 00:00:00,127.35723114013672,236.20529174804688,-1.8722834823513794,-1.015,0.0,1.1619070083964713
2023-03-15 00:00:00,123.67929077148438,231.88853454589844,-1.8713439805733574,-0.484,0.0,1.1619070083964713
2023-03-16 00:00:00,124.78366088867188,232.76170349121094,-1.8698238996385712,-0.631,0.0,1.1619070083964713
2023-03-17 00:00:00,120.78032684326172,227.35592651367188,-1.8697776109409667,-0.201,0.0,1.1619070083964713
2023-03-20 00:00:00,123.56096649169922,232.5949249267578,-1.8698960382561287,-0.173,0.0,1.1619070083964713
2023-03-21 00:00:00,124.83296203613281,234.55706787109375,-1.8697377613095543,-0.221,0.0,1.1619070083964713
2023-03-22 00:00:00,121.88468933105469,229.2396240234375,-1.8696995139805366,-0.163,0.0,1.1619070083964713
2023-03-23 00:00:00,121.78609466552734,229.32789611816406,-1.8698609723618265,-0.083,0.0,1.1619070083964713
2023-03-24 00:00:00,123.68915557861328,229.95579528808594,-1.868030557952477,-0.585,0.0,1.1619070083964713
2023-03-27 00:00:00,124.24134063720703,232.5654754638672,-1.8672445721972195,-0.153,0.0,1.1619070083964713
2023-03-28 00:00:00,124.45825958251953,234.7434844970703,-1.8678314785078198,0.3,0.0,1.1619070083964713
2023-03-29 00:00:00,126.4500732421875,236.98036193847656,-1.8674843939163301,-0.035,0.0,1.1619070083964713
2023-03-30 00:00:00,128.01788330078125,237.3335418701172,-1.8653289367821175,-0.577,0.0,1.1619070083964713
2023-03-31 00:00:00,131.7155303955078,242.21932983398438,-1.8618382219024714,-0.967,0.0,1.1619070083964713
2023-04-03 00:00:00,138.08535766601562,241.97406005859375,-1.8504132036050784,-3.389,1.0,1.1619070083964713
2023-04-04 00:00:00,136.38938903808594,232.26133728027344,-1.834997973992968,-3.501,1.0,1.1526392851822913
2023-04-05 00:00:00,137.0105743408203,225.38397216796875,-1.8153793202394986,-3.514,1.0,1.141398698940996
2023-04-06 00:00:00,136.14288330078125,224.38327026367188,-1.7976463460926302,-2.617,1.0,1.1477695731824276
2023-04-10 00:00:00,136.40908813476562,228.94528198242188,-1.784446480651229,-1.626,1.0,1.1602262824498062
2023-04-11 00:00:00,137.35569763183594,231.4176025390625,-1.7733994655804517,-1.223,1.0,1.165069434161394
2023-04-12 00:00:00,136.0836944580078,233.42881774902344,-1.7663667326922916,-0.474,1.0,1.1760951778371898
2023-04-13 00:00:00,137.34584045410156,234.3903045654297,-1.7595012047851057,-0.485,1.0,1.1754125313564312
2023-04-14 00:00:00,136.48797607421875,235.4008026123047,-1.7549253999180747,-0.034,1.0,1.1820334513690398
2023-04-17 00:00:00,138.9629364013672,236.04832458496094,-1.748569518811348,-0.413,1.0,1.1761620249607525
2023-04-18 00:00:00,139.63345336914062,237.6573028564453,-1.7429437779621348,-0.229,1.0,1.1787025586812225
2023-04-19 00:00:00,138.5882568359375,235.23402404785156,-1.7375158031872755,-0.207,1.0,1.1790191196121358
2023-04-20 00:00:00,139.47569274902344,253.99232482910156,-1.7436617675007946,1.888,-1.0,1.2119222940416865
2023-04-21 00:00:00,139.998291015625,258.0343933105469,-1.7521953520902374,1.947,-1.0,1.2080756865379947
2023-04-24 00:00:00,140.96463012695312,254.2179412841797,-1.7566157021545712,1.129,-1.0,1.2202963081565166
2023-04-25 00:00:00,138.46990966796875,252.97198486328125,-1.7622933031492323,1.351,-1.0,1.215567640172503
2023-04-26 00:00:00,135.7188720703125,249.32237243652344,-1.7683354620432274,1.33,-1.0,1.2147941410413001
2023-04-27 00:00:00,136.99085998535156,254.49266052246094,-1.775741335414037,1.507,-1.0,1.210964028892053
2023-04-28 00:00:00,138.30230712890625,254.5024871826172,-1.7811281005058144,1.125,-1.0,1.217081725170374
2023-05-01 00:00:00,137.8092803955078,257.4849853515625,-1.7883252497094024,1.38,-1.0,1.2113888868017666
2023-05-02 00:00:00,137.65151977539062,257.1219177246094,-1.794981635127888,1.204,-1.0,1.2133666619824008
2023-05-03 00:00:00,136.40908813476562,257.4064636230469,-1.8026089802256922,1.292,-1.0,1.210437489594883
2023-05-04 00:00:00,133.60874938964844,253.78628540039062,-1.8105734620915808,1.259,-1.0,1.209703947245132
2023-05-05 00:00:00,136.10340881347656,255.87596130371094,-1.8163474007359406,0.903,-1.0,1.21609039881356
2023-05-08 00:00:00,136.7443389892578,254.95376586914062,-1.8201166436635863,0.627,-1.0,1.221254234827064
2023-05-09 00:00:00,135.8331298828125,252.51087951660156,-1.8228981815237322,0.499,-1.0,1.2235780821474842
2023-05-10 00:00:00,135.5557861328125,251.9320526123047,-1.8253141318730357,0.449,-1.0,1.2243806101230774
2023-05-11 00:00:00,135.9321746826172,251.18641662597656,-1.8265811252274635,0.288,-1.0,1.227593744429736
2023-05-12 00:00:00,136.78396606445312,251.19622802734375,-1.8266619882350315,0.127,-1.0,1.230701422427824
2023-05-15 00:00:00,139.28985595703125,252.89349365234375,-1.8248114201952812,-0.125,-1.0,1.235873048745506
2023-05-16 00:00:00,138.00225830078125,249.77365112304688,-1.8224821267292464,-0.157,-1.0,1.2367683000903258
2023-05-17 00:00:00,141.0529022216797,252.65802001953125,-1.818631038517994,-0.353,0.0,1.240955744422578
2023-05-18 00:00:00,141.2113800048828,257.9400634765625,-1.8181633241281365,0.136,0.0,1.240955744422578
2023-05-19 00:00:00,141.04298400878906,257.54510498046875,-1.8179515952037493,0.118,0.0,1.240955744422578
2023-05-22 00:00:00,139.33937072753906,257.97955322265625,-1.82000152020185,0.395,0.0,1.240955744422578
2023-05-23 00:00:00,135.5756072998047,255.1855010986328,-1.8246089212460659,0.698,0.0,1.240955744422578
2023-05-24 00:00:00,132.138671875,252.04592895507812,-1.8310193504940213,0.929,0.0,1.240955744422578
2023-05-25 00:00:00,131.77218627929688,252.50994873046875,-1.8377783967184103,0.95,0.0,1.240955744422578
2023-05-26 00:00:00,132.4556121826172,254.0797576904297,-1.8442172265649677,0.85,0.0,1.240955744422578
2023-05-30 00:00:00,133.06971740722656,253.3886260986328,-1.848938948986957,0.458,0.0,1.240955744422578
2023-05-31 00:00:00,130.03884887695312,245.6976318359375,-1.851802712144318,0.025,0.0,1.240955744422578
2023-06-01 00:00:00,133.69371032714844,249.45921325683594,-1.8523575201809643,-0.551,0.0,1.240955744422578
2023-06-02 00:00:00,138.24986267089844,256.40972900390625,-1.8517245241929898,-0.84,0.0,1.240955744422578
2023-06-05 00:00:00,136.60568237304688,256.0839538574219,-1.8527862742612367,-0.468,0.0,1.240955744422578
2023-06-06 00:00:00,137.89329528808594,259.4308776855469,-1.8545046770857694,-0.412,0.0,1.240955744422578
2023-06-07 00:00:00,140.4982452392578,266.4307861328125,-1.8574997860310143,-0.13,0.0,1.240955744422578
2023-06-08 00:00:00,139.82470703125,265.9075012207031,-1.8607858174293614,-0.037,0.0,1.240955744422578
2023-06-09 00:00:00,138.33900451660156,264.17974853515625,-1.864457224977103,0.134,0.0,1.240955744422578
2023-06-12 00:00:00,138.65597534179688,263.86383056640625,-1.8672596749247925,-0.165,0.0,1.240955744422578
2023-06-13 00:00:00,139.97328186035156,270.1528625488281,-1.8721619286372904,0.596,0.0,1.240955744422578
2023-06-14 00:00:00,139.35919189453125,268.3263854980469,-1.8763646627656756,0.313,0.0,1.240955744422578
2023-06-15 00:00:00,139.92376708984375,270.78472900390625,-1.8810179869720598,0.535,0.0,1.240955744422578
2023-06-16 00:00:00,141.7165069580078,270.3898010253906,-1.8829174670940627,-0.439,0.0,1.240955744422578
2023-06-20 00:00:00,140.68641662597656,269.55059814453125,-1.8851178461144646,-0.198,0.0,1.240955744422578
2023-06-21 00:00:00,140.9835662841797,269.41241455078125,-1.8867064350259355,-0.396,0.0,1.240955744422578
2023-06-22 00:00:00,139.42852783203125,270.06402587890625,-1.890352153807422,0.48,0.0,1.240955744422578
2023-06-23 00:00:00,137.56643676757812,270.14300537109375,-1.89609905213936,1.328,0.0,1.240955744422578
2023-06-26 00:00:00,139.73558044433594,274.260009765625,-1.9015146705660706,1.114,0.0,1.240955744422578
2023-06-27 00:00:00,143.0536346435547,279.58148193359375,-1.9058002414125086,0.642,0.0,1.240955744422578
2023-06-28 00:00:00,141.93441772460938,279.59136962890625,-1.9109439742201042,1.003,0.0,1.240955744422578
2023-06-29 00:00:00,143.9846954345703,283.3134765625,-1.9155640639648277,0.728,0.0,1.240955744422578
2023-06-30 00:00:00,146.88677978515625,284.5278625488281,-1.9170188841821483,-0.549,0.0,1.240955744422578
2023-07-03 00:00:00,147.64944458007812,283.2147521972656,-1.9163794794634967,-1.278,0.0,1.240955744422578
2023-07-05 00:00:00,144.78697204589844,280.1047668457031,-1.9171034990121032,-0.707,0.0,1.240955744422578
2023-07-06 00:00:00,143.8460235595703,277.63653564453125,-1.9174566428415765,-0.989,0.0,1.240955744422578
2023-07-07 00:00:00,145.371337890625,277.16265869140625,-1.9156635090028675,-2.077,1.0,1.240955744422578
2023-07-10 00:00:00,146.49058532714844,281.763427734375,-1.9153776172452956,-1.276,1.0,1.2453988064810355
2023-07-11 00:00:00,149.15493774414062,287.4996032714844,-1.9156172675277663,-1.099,1.0,1.246440615928407
2023-07-12 00:00:00,150.2246551513672,289.039794921875,-1.91556394223788,-1.204,1.0,1.2455720954585792
2023-07-13 00:00:00,150.06617736816406,286.8973388671875,-1.9143806074142589,-1.603,1.0,1.2426787519820162
2023-07-14 00:00:00,148.31304931640625,289.2372131347656,-1.9166659680864684,0.087,1.0,1.2520197187200783
2023-07-17 00:00:00,149.75912475585938,291.0143737792969,-1.9183939471374811,-0.264,1.0,1.2498526100862346
2023-07-18 00:00:00,149.92750549316406,291.3401794433594,-1.9199228091624103,-0.293,1.0,1.2494616613116065
2023-07-19 00:00:00,148.8280792236328,290.570068359375,-1.9221010259055524,0.099,1.0,1.2512245213141997
2023-07-20 00:00:00,148.29324340820312,269.274169921875,-1.9119868282383095,-4.261,1.0,1.2172742306113304
2023-07-21 00:00:00,147.92677307128906,272.0484619140625,-1.9039792623527227,-2.707,1.0,1.225689489618567
2023-07-24 00:00:00,144.47991943359375,271.12042236328125,-1.9002006099526374,-1.358,1.0,1.2370163662322375
2023-07-25 00:00:00,145.6090545654297,269.6592102050781,-1.8948889759887924,-1.785,1.0,1.2318229685265758
2023-07-26 00:00:00,144.78697204589844,265.5816955566406,-1.8884159914937677,-1.908,1.0,1.2288868710950664
2023-07-27 00:00:00,143.4201202392578,266.3715515136719,-1.8844373821798428,-1.12,1.0,1.2362319621137536
2023-07-28 00:00:00,144.02432250976562,268.6324157714844,-1.8816518699043279,-0.8,1.0,1.2390550952733406
2023-07-31 00:00:00,142.5286865234375,268.9779968261719,-1.8810921063899095,-0.193,1.0,1.2450869414007968
2023-08-01 00:00:00,144.16297912597656,271.5054626464844,-1.8804116249048068,-0.251,1.0,1.244260004192782
2023-08-02 00:00:00,140.41900634765625,270.14300537109375,-1.8832100472341264,0.728,0.0,1.2541458702145731
2023-08-03 00:00:00,138.9431915283203,270.04425048828125,-1.8876585017914491,1.095,0.0,1.2541458702145731
2023-08-04 00:00:00,139.23043823242188,268.77069091796875,-1.8907623141064371,0.704,0.0,1.2541458702145731
2023-08-07 00:00:00,141.89479064941406,270.2614440917969,-1.8913498537515678,0.043,0.0,1.2541458702145731
2023-08-08 00:00:00,141.96412658691406,269.42230224609375,-1.891110049405015,-0.111,0.0,1.2541458702145731
2023-08-09 00:00:00,138.74038696289062,269.0964660644531,-1.8943522981517855,0.851,0.0,1.2541458702145731
2023-08-10 00:00:00,138.75033569335938,265.0781555175781,-1.8951162130964054,0.115,0.0,1.2541458702145731
2023-08-11 00:00:00,135.95443725585938,266.9046630859375,-1.9000088877729293,1.327,0.0,1.2541458702145731
2023-08-14 00:00:00,138.92942810058594,267.1910095214844,-1.9015110441910241,0.324,0.0,1.2541458702145731
2023-08-15 00:00:00,138.17323303222656,264.33770751953125,-1.901758107576226,0.078,0.0,1.2541458702145731
2023-08-16 00:00:00,136.9494171142578,264.2982482910156,-1.9033034541603129,0.525,0.0,1.2541458702145731
2023-08-17 00:00:00,137.37725830078125,263.9406433105469,-1.9040944342270878,0.306,0.0,1.2541458702145731
2023-08-18 00:00:00,138.82992553710938,266.7516784667969,-1.904789082313708,0.3,0.0,1.2541458702145731
2023-08-21 00:00:00,137.90460205078125,265.4007873535156,-1.90567304681463,0.345,0.0,1.2541458702145731
2023-08-22 00:00:00,137.66580200195312,263.1856994628906,-1.905402889072281,-0.0,0.0,1.2541458702145731
2023-08-23 00:00:00,137.1583709716797,264.81475830078125,-1.9066827876283694,0.489,0.0,1.2541458702145731
2023-08-24 00:00:00,136.56137084960938,260.3249816894531,-1.9058850162155863,-0.187,0.0,1.2541458702145731
2023-08-25 00:00:00,137.67575073242188,262.8777770996094,-1.9052607120772675,-0.077,0.0,1.2541458702145731
2023-08-28 00:00:00,138.13343811035156,263.334716796875,-1.9044438457723019,-0.131,0.0,1.2541458702145731
2023-08-29 00:00:00,140.2527618408203,265.1028137207031,-1.9022666048770316,-0.516,0.0,1.2541458702145731
2023-08-30 00:00:00,141.32733154296875,267.0794677734375,-1.9001345555914997,-0.46,0.0,1.2541458702145731
2023-08-31 00:00:00,141.04873657226562,266.8013610839844,-1.898352592156809,-0.324,0.0,1.2541458702145731
2023-09-01 00:00:00,141.2974853515625,268.7084655761719,-1.8976493667159173,0.013,0.0,1.2541458702145731
2023-09-05 00:00:00,135.7852783203125,261.50701904296875,-1.899123420911183,0.649,0.0,1.2541458702145731
2023-09-06 00:00:00,136.3623809814453,260.7421875,-1.8994816001713988,0.271,0.0,1.2541458702145731
2023-09-07 00:00:00,135.49673461914062,257.0173034667969,-1.8984199308539849,-0.267,0.0,1.2541458702145731
2023-09-08 00:00:00,135.01914978027344,258.00067138671875,-1.8985208669599871,0.137,0.0,1.2541458702145731
2023-09-11 00:00:00,135.6658935546875,259.5005798339844,-1.8988758918358093,0.16,0.0,1.2541458702145731
2023-09-12 00:00:00,133.16847229003906,260.6428527832031,-1.902930831428679,1.66,-1.0,1.2541458702145731
2023-09-13 00:00:00,132.3326873779297,259.31182861328125,-1.9071157380280979,1.606,-1.0,1.2547211907645812
2023-09-14 00:00:00,133.71571350097656,262.14276123046875,-1.9110921874110125,1.439,-1.0,1.2553748150744275
2023-09-15 00:00:00,133.12867736816406,258.6761474609375,-1.9132346947876262,0.476,-1.0,1.260497628006209
2023-09-18 00:00:00,131.82525634765625,258.9443054199219,-1.9168121310391653,1.232,-1.0,1.256021115114759
2023-09-19 00:00:00,131.54666137695312,258.3582763671875,-1.9201817863426365,0.994,-1.0,1.2569904467781052
2023-09-20 00:00:00,130.14373779296875,254.01751708984375,-1.9222075456564331,0.336,-1.0,1.2607798232942757
2023-09-21 00:00:00,127.64631652832031,253.4314727783203,-1.9266730518109132,1.665,-1.0,1.253481518085925
2023-09-22 00:00:00,129.4770965576172,254.1466522216797,-1.9291734724554859,0.543,-1.0,1.2597043657406637
2023-09-25 00:00:00,131.38746643066406,254.57379150390625,-1.9292010328877967,-0.643,0.0,1.2661248722819198
2023-09-26 00:00:00,127.9647216796875,251.26608276367188,-1.9311554684990522,0.438,0.0,1.2661248722819198
2023-09-27 00:00:00,127.38762664794922,252.26931762695312,-1.9344935200487923,1.069,0.0,1.2661248722819198
2023-09-28 00:00:00,129.90493774414062,255.9147491455078,-1.9368803911845627,0.478,0.0,1.2661248722819198
2023-09-29 00:00:00,129.1487579345703,253.35202026367188,-1.9382722089646138,0.073,0.0,1.2661248722819198
2023-10-02 00:00:00,128.7209014892578,250.07411193847656,-1.9378635000768414,-0.837,0.0,1.2661248722819198
2023-10-03 00:00:00,128.0045166015625,252.24945068359375,-1.9396698088813442,0.438,0.0,1.2661248722819198
2023-10-04 00:00:00,132.5515899658203,254.17645263671875,-1.9369989195002775,-1.928,1.0,1.2661248722819198
2023-10-05 00:00:00,130.67108154296875,256.1730041503906,-1.9378699021052022,0.101,1.0,1.2769715926764393
2023-10-06 00:00:00,132.46205139160156,257.9708557128906,-1.9378738970572404,-0.503,1.0,1.2737202695686856
2023-10-09 00:00:00,128.1139678955078,258.6761474609375,-1.943794416039108,2.282,-1.0,1.2902118445529578
2023-10-10 00:00:00,129.6263427734375,258.99395751953125,-1.9480101925812054,1.146,-1.0,1.2964061078489437
2023-10-11 00:00:00,131.8551025390625,259.4608154296875,-1.9491750665693937,-0.179,-1.0,1.3042059555812924
2023-10-12 00:00:00,129.40744018554688,252.6368408203125,-1.9486277823734899,-0.842,0.0,1.308132688370794
2023-10-13 00:00:00,127.81547546386719,251.95144653320312,-1.9495692190370812,-0.102,0.0,1.308132688370794
2023-10-16 00:00:00,129.6959991455078,255.42800903320312,-1.9504360144529753,-0.228,0.0,1.308132688370794
2023-10-17 00:00:00,130.79046630859375,257.30535888671875,-1.9510527162617026,-0.397,0.0,1.308132688370794
2023-10-18 00:00:00,127.13888549804688,248.67356872558594,-1.9506008491020395,-0.963,0.0,1.308132688370794
2023-10-19 00:00:00,123.71614074707031,251.01776123046875,-1.9560682168963832,1.936,-1.0,1.308132688370794
2023-10-20 00:00:00,124.09423828125,251.2064666748047,-1.9612594228091602,1.413,-1.0,1.3105490008803855
2023-10-23 00:00:00,123.06940460205078,248.87222290039062,-1.9658004319369797,1.049,-1.0,1.3123483785379124
2023-10-24 00:00:00,122.2336196899414,252.33883666992188,-1.9733500762839962,2.23,-1.0,1.303865363695637
2023-10-25 00:00:00,120.87049865722656,248.52455139160156,-1.979827769324341,1.52,-1.0,1.3077752149683444
2023-10-26 00:00:00,121.39783477783203,251.79254150390625,-1.9872072352578398,1.788,-1.0,1.3050814838948244
2023-10-27 00:00:00,120.11431121826172,250.6502227783203,-1.9950481996245064,1.777,-1.0,1.3041300017245594
2023-10-30 00:00:00,121.20878601074219,252.7858428955078,-2.002285517383531,1.44,-1.0,1.305997151812628
2023-10-31 00:00:00,122.15401458740234,256.2127380371094,-2.009932268879248,1.529,-1.0,1.304800907950671
2023-11-01 00:00:00,122.35301971435547,258.77545166015625,-2.018470923260679,1.716,-1.0,1.3025902989187728
2023-11-02 00:00:00,124.2932357788086,261.6063537597656,-2.0256435717486965,1.125,-1.0,1.3064410113185023
2023-11-03 00:00:00,127.66622161865234,269.04620361328125,-2.0324841467136188,1.014,-1.0,1.3069441610276562
2023-11-06 00:00:00,127.1090316772461,267.158935546875,-2.03817543841732,0.614,-1.0,1.3097532074311942
2023-11-07 00:00:00,127.16873168945312,265.2815856933594,-2.0419014075138167,-0.031,-1.0,1.3144638789842682
2023-11-08 00:00:00,128.90000915527344,263.90087890625,-2.0417790246030014,-1.21,0.0,1.3237603268785458
2023-11-09 00:00:00,127.37000274658203,263.64263916015625,-2.0432564287462758,-0.529,0.0,1.3237603268785458
2023-11-10 00:00:00,128.80999755859375,268.2317199707031,-2.0458657094106774,-0.232,0.0,1.3237603268785458
2023-11-13 00:00:00,129.27999877929688,265.4107360839844,-2.045789826482164,-1.148,0.0,1.3237603268785458
2023-11-14 00:00:00,133.50999450683594,273.34722900390625,-2.044993792556949,-1.23,0.0,1.3237603268785458
2023-11-15 00:00:00,133.6199951171875,273.1982421875,-2.043956612478825,-1.228,0.0,1.3237603268785458
2023-11-16 00:00:00,135.16000366210938,272.88037109375,-2.040682135103211,-1.815,1.0,1.3237603268785458
2023-11-17 00:00:00,135.8699951171875,275.9000244140625,-2.0385624690894137,-1.362,1.0,1.3271223351686605
2023-11-20 00:00:00,135.55999755859375,275.2699890136719,-2.0367454911719345,-1.245,1.0,1.3275725282669832
2023-11-21 00:00:00,136.5800018310547,274.8699951171875,-2.033492008322029,-1.682,1.0,1.3238933636849701
2023-11-22 00:00:00,136.63999938964844,274.6700134277344,-2.030207488889043,-1.56,1.0,1.3241230605542815
2023-11-24 00:00:00,136.4499969482422,275.1400146484375,-2.027786004942576,-1.27,1.0,1.3262725523343237
2023-11-27 00:00:00,137.2899932861328,273.8699951171875,-2.0237228605586255,-1.642,1.0,1.3218942795328852
2023-11-28 00:00:00,138.0800018310547,270.9599914550781,-2.016967190792292,-2.118,1.0,1.3153862157311953
2023-11-29 00:00:00,139.5500030517578,271.8399963378906,-2.009267809020285,-2.09,1.0,1.3135563902682168
2023-11-30 00:00:00,141.99000549316406,274.69000244140625,-2.000900965896346,-2.05,1.0,1.3120091330389594
2023-12-01 00:00:00,143.6300048828125,279.8599853515625,-1.9944998185147342,-1.493,1.0,1.3169672022866885
2023-12-04 00:00:00,143.14999389648438,280.9200134277344,-1.9901657054453743,-1.032,1.0,1.3216292404295176
2023-12-05 00:00:00,142.64999389648438,278.94000244140625,-1.985786844283351,-1.04,1.0,1.3209884086692105
2023-12-06 00:00:00,142.6999969482422,280.1400146484375,-1.9825132979161766,-0.781,1.0,1.3237730046048746
2023-12-07 00:00:00,144.97999572753906,280.0,-1.9767027620551378,-1.273,1.0,1.317034829599193
2023-12-08 00:00:00,143.97999572753906,278.2200012207031,-1.9713663345048646,-1.064,1.0,1.318751812491078
2023-12-11 00:00:00,145.83999633789062,281.07000732421875,-1.9660609383897207,-1.009,1.0,1.3186760859903823
2023-12-12 00:00:00,145.3699951171875,280.1000061035156,-1.9612321095844516,-0.862,1.0,1.3198367576811847
2023-12-13 00:00:00,147.47000122070312,284.07000732421875,-1.9568056871108,-0.738,1.0,1.3207171820675918
2023-12-14 00:00:00,149.14999389648438,289.20001220703125,-1.9539727826280489,-0.347,1.0,1.3246182786043965
2023-12-15 00:00:00,148.67999267578125,286.2799987792969,-1.950304033960037,-0.534,1.0,1.3220913001976777
2023-12-18 00:00:00,148.75,287.29998779296875,-1.9474618783451034,-0.268,1.0,1.32435517919873
2023-12-19 00:00:00,149.50999450683594,288.54998779296875,-1.944810759117631,-0.184,1.0,1.324642255225023
2023-12-20 00:00:00,146.32000732421875,284.1400146484375,-1.9435120192010547,0.281,0.0,1.3281320152215343
2023-12-21 00:00:00,147.75,287.0199890136719,-1.942492826862366,0.432,0.0,1.3281320152215343
2023-12-22 00:00:00,148.75,288.1499938964844,-1.9410963822604224,0.407,0.0,1.3281320152215343
2023-12-26 00:00:00,149.69000244140625,289.9100036621094,-1.9397630828023955,0.569,0.0,1.3281320152215343
2023-12-27 00:00:00,150.16000366210938,290.19000244140625,-1.938178483517732,0.557,0.0,1.3281320152215343
2023-12-28 00:00:00,150.3800048828125,289.94000244140625,-1.9363172494389855,0.457,0.0,1.3281320152215343
2023-12-29 00:00:00,149.5500030517578,288.8399963378906,-1.9349117012058312,0.762,0.0,1.3281320152215343
2024-01-02 00:00:00,147.27999877929688,288.739990234375,-1.9362350425317423,2.211,-1.0,1.3281320152215343
2024-01-03 00:00:00,145.6199951171875,282.8399963378906,-1.9360292979468934,1.293,-1.0,1.3328346404135587
2024-01-04 00:00:00,144.91000366210938,282.07000732421875,-1.9360940604385417,1.464,-1.0,1.3317767673149183
2024-01-05 00:00:00,145.94000244140625,280.92999267578125,-1.9342941989609455,0.506,-1.0,1.3368751530736762
2024-01-08 00:00:00,147.38999938964844,282.7900085449219,-1.9319533271126879,0.29,-1.0,1.3379317888585933
2024-01-09 00:00:00,146.22999572753906,280.94000244140625,-1.9300147003366146,0.524,-1.0,1.336734003190339
2024-01-10 00:00:00,147.2899932861328,282.489990234375,-1.9279788560820774,0.465,-1.0,1.3370799462487186
2024-01-11 00:00:00,146.38999938964844,284.1199951171875,-1.9281299646213608,1.515,-1.0,1.3311774433942805
2024-01-12 00:00:00,145.5500030517578,283.9200134277344,-1.9292745840508643,1.78,-1.0,1.32895859531128
2024-01-16 00:00:00,143.75999450683594,285.0400085449219,-1.9331344469196567,2.632,-1.0,1.3218202388673443
2024-01-17 00:00:00,143.0800018310547,283.010009765625,-1.9364331681003069,2.071,-1.0,1.3239404242356538
2024-01-18 00:00:00,144.9499969482422,284.9599914550781,-1.9384056930178946,1.47,-1.0,1.327398537115406
2024-01-19 00:00:00,141.38999938964844,286.8599853515625,-1.9454152284735078,3.002,-1.0,1.3135004661451468
2024-01-22 00:00:00,142.13999938964844,288.92999267578125,-1.9525740625991286,2.613,-1.0,1.314218265123731
2024-01-23 00:00:00,142.44000244140625,288.79998779296875,-1.9587074708962509,2.067,-1.0,1.3170175440154401
2024-01-24 00:00:00,141.02999877929688,286.2799987792969,-1.9643965631229987,1.791,-1.0,1.3180126056626598
2024-01-25 00:00:00,142.7899932861328,288.54998779296875,-1.9688535593739362,1.331,-1.0,1.3212139544376422
2024-01-26 00:00:00,143.0399932861328,289.6600036621094,-1.9732120355270095,1.248,-1.0,1.321223805529098
2024-01-29 00:00:00,142.86000061035156,291.8500061035156,-1.9787326993151275,1.505,-1.0,1.318166560928423
2024-01-30 00:00:00,143.07000732421875,294.30999755859375,-1.9851044951087835,1.62,-1.0,1.3162077257451306
2024-01-31 00:00:00,141.0399932861328,289.92999267578125,-1.9907819027308253,1.32,-1.0,1.3182244359975979
2024-02-01 00:00:00,141.5,290.04998779296875,-1.9954435814882943,0.979,-1.0,1.3207670497427846
2024-02-02 00:00:00,140.08999633789062,292.6099853515625,-2.002914399217976,1.729,-1.0,1.3132181895695265
2024-02-05 00:00:00,137.57000732421875,291.5,-2.0123871992118847,2.047,-1.0,1.308583385294242
2024-02-06 00:00:00,139.88999938964844,293.4200134277344,-2.019543797751095,1.266,-1.0,1.3150942797907466
2024-02-07 00:00:00,139.3699951171875,294.5,-2.0272320600305784,1.38,-1.0,1.3132596522415476
2024-02-08 00:00:00,138.6300048828125,266.0299987792969,-2.0177293757963386,-2.979,1.0,1.3602639839633155
2024-02-09 00:00:00,139.5800018310547,262.42999267578125,-2.0043283552126168,-2.995,1.0,1.3535388498252614
2024-02-12 00:00:00,140.89999389648438,267.739990234375,-1.9934195329873297,-2.175,1.0,1.3611969888491904
