Date,x,y,hr,zScore,numUnits,cum rets
2022-04-20 00:00:00,127.35070037841797,137.36618041992188,-1.0385236262506787,-0.802,1.0,0.9865301245562839
2022-04-21 00:00:00,128.75279235839844,124.83941650390625,-1.0324140922344636,-2.638,1.0,0.9353353596422854
2022-04-22 00:00:00,128.46270751953125,120.12566375732422,-1.0229386808044727,-2.677,1.0,0.9226252941197988
2022-04-25 00:00:00,125.06863403320312,120.25521850585938,-1.0164097359016393,-1.912,1.0,0.9404849350189708
2022-04-26 00:00:00,121.74224090576172,116.66759490966797,-1.0105457374588935,-1.752,1.0,0.9426011820471588
2022-04-27 00:00:00,125.32971954345703,117.39509582519531,-1.0032560233299344,-1.877,1.0,0.9344402438560673
2022-04-28 00:00:00,126.5287857055664,118.43151092529297,-0.9963450771828649,-1.689,1.0,0.9373354774662569
2022-04-29 00:00:00,123.7632064819336,115.58134460449219,-0.9899904083121976,-1.538,1.0,0.9402408217190015
2022-05-02 00:00:00,126.66415405273438,115.83049011230469,-0.9824423752655292,-1.665,1.0,0.9333040650285929
2022-05-03 00:00:00,128.81085205078125,118.60093688964844,-0.9758953878974658,-1.375,1.0,0.9394633794235
2022-05-04 00:00:00,132.804443359375,120.86312103271484,-0.9689333938151171,-1.376,1.0,0.9366159225993625
2022-05-05 00:00:00,127.22500610351562,120.57412719726562,-0.9660164277924169,-0.604,1.0,0.9591570760718828
2022-05-06 00:00:00,124.2853775024414,117.18582153320312,-0.9633434426948908,-0.593,1.0,0.9582438249686182
2022-05-09 00:00:00,123.50822448730469,109.45247650146484,-0.9561830120388791,-1.335,1.0,0.9314350530887943
2022-05-10 00:00:00,121.46822357177734,111.4356460571289,-0.9518606282998663,-0.688,1.0,0.9510725297708911
2022-05-11 00:00:00,120.7493667602539,108.38616180419922,-0.9465317022833625,-0.871,1.0,0.9433404748308419
2022-05-12 00:00:00,119.7973403930664,108.55558013916016,-0.9422611736299282,-0.607,1.0,0.950485382227125
2022-05-13 00:00:00,118.86477661132812,112.18306732177734,-0.9415147615190574,0.107,1.0,0.9709896649799589
2022-05-16 00:00:00,117.02876281738281,111.80438995361328,-0.9420880620898004,0.368,0.0,0.9767668800788936
2022-05-17 00:00:00,120.77850341796875,113.26931762695312,-0.9413139847639296,0.077,0.0,0.9767668800788936
2022-05-18 00:00:00,116.1447525024414,110.23977661132812,-0.9413962093727753,0.311,0.0,0.9767668800788936
2022-05-19 00:00:00,119.1659164428711,113.1397705078125,-0.9415929684969876,0.342,0.0,0.9767668800788936
2022-05-20 00:00:00,116.2613296508789,112.61158752441406,-0.9433244211090394,0.67,0.0,0.9767668800788936
2022-05-23 00:00:00,119.30192565917969,116.02980041503906,-0.9454518216773359,0.714,0.0,0.9767668800788936
2022-05-24 00:00:00,117.99048614501953,115.51158905029297,-0.9479503045858628,0.772,0.0,0.9767668800788936
2022-05-25 00:00:00,119.8847885131836,117.95315551757812,-0.9507337522956433,0.795,0.0,0.9767668800788936
2022-05-26 00:00:00,122.69223022460938,120.21536254882812,-0.9530240207833746,0.678,0.0,0.9767668800788936
2022-05-27 00:00:00,126.31568145751953,123.08546447753906,-0.954655507586166,0.569,0.0,0.9767668800788936
2022-05-31 00:00:00,122.87680053710938,118.59095764160156,-0.955232393900452,0.38,0.0,0.9767668800788936
2022-06-01 00:00:00,121.78880310058594,119.36827850341797,-0.9569239435752881,0.69,0.0,0.9767668800788936
2022-06-02 00:00:00,125.1111068725586,124.14181518554688,-0.9596860939710568,0.924,0.0,0.9767668800788936
2022-06-03 00:00:00,121.876220703125,128.67617797851562,-0.9676264451795882,2.011,-1.0,0.9767668800788936
2022-06-06 00:00:00,123.49852752685547,130.9483184814453,-0.9758761595367952,1.952,-1.0,0.9780253884259213
2022-06-07 00:00:00,125.10138702392578,133.28028869628906,-0.983965861350464,1.879,-1.0,0.9789781113014135
2022-06-08 00:00:00,123.38195037841797,129.99163818359375,-0.9902242534409906,1.449,-1.0,0.9883724890806793
2022-06-09 00:00:00,120.4482192993164,130.31051635742188,-0.9980168387808913,1.69,-1.0,0.9792501514511691
2022-06-10 00:00:00,112.58930969238281,126.16483306884766,-1.007933743109169,1.956,-1.0,0.9684797302040731
2022-06-13 00:00:00,110.06356811523438,125.37755584716797,-1.0185881198523077,1.879,-1.0,0.9660128826588505
2022-06-14 00:00:00,108.32471466064453,123.12532043457031,-1.028232522947778,1.539,-1.0,0.9725192069843094
2022-06-15 00:00:00,110.37443542480469,123.693359375,-1.0359953422374641,1.123,-1.0,0.9825862535054509
2022-06-16 00:00:00,105.40068817138672,114.33563232421875,-1.0399948155384455,0.392,-1.0,1.0032446954936347
2022-06-17 00:00:00,106.87726593017578,113.45867156982422,-1.0415845407385615,-0.047,-1.0,1.0147336851321802
2022-06-21 00:00:00,107.44071197509766,118.82017517089844,-1.0462839178566745,0.585,-1.0,0.9962687159336557
2022-06-22 00:00:00,109.51956939697266,118.45145416259766,-1.049105502714526,0.064,-1.0,1.0084942425129475
2022-06-23 00:00:00,111.09329986572266,120.34491729736328,-1.0516857864764717,-0.002,-1.0,1.008680591983198
2022-06-24 00:00:00,117.5533447265625,125.54696655273438,-1.0528623128452983,-0.347,0.0,1.0156203930818422
2022-06-27 00:00:00,117.83505249023438,127.47032928466797,-1.0549721946634054,-0.124,0.0,1.0156203930818422
2022-06-28 00:00:00,115.86304473876953,123.67343139648438,-1.0557465220860818,-0.575,0.0,1.0156203930818422
2022-06-29 00:00:00,113.86188507080078,119.33838653564453,-1.05469184971643,-1.068,0.0,1.0156203930818422
2022-06-30 00:00:00,111.07386779785156,124.98223114013672,-1.0598084396313685,0.621,0.0,1.0156203930818422
2022-07-01 00:00:00,114.49331665039062,125.77993774414062,-1.0631021355966146,-0.193,0.0,1.0156203930818422
2022-07-05 00:00:00,115.36761474609375,126.88677978515625,-1.066052828645415,-0.266,0.0,1.0156203930818422
2022-07-06 00:00:00,115.98933410644531,125.92951965332031,-1.067531321817382,-0.728,0.0,1.0156203930818422
2022-07-07 00:00:00,115.69789123535156,131.8725128173828,-1.0732945124174487,0.652,0.0,1.0156203930818422
2022-07-08 00:00:00,114.50303649902344,131.57333374023438,-1.079746814027813,0.67,0.0,1.0156203930818422
2022-07-11 00:00:00,110.90872192382812,130.775634765625,-1.0880061482505845,1.173,0.0,1.0156203930818422
2022-07-12 00:00:00,112.71558380126953,127.35543060302734,-1.091850473055016,-0.38,0.0,1.0156203930818422
2022-07-13 00:00:00,112.40473937988281,127.53491973876953,-1.095287943518999,-0.356,0.0,1.0156203930818422
2022-07-14 00:00:00,111.55958557128906,127.67451477050781,-1.0991870032668973,-0.199,0.0,1.0156203930818422
2022-07-15 00:00:00,113.46360778808594,127.64459991455078,-1.101256276320735,-0.817,0.0,1.0156203930818422
2022-07-18 00:00:00,111.62759399414062,126.59761047363281,-1.1036754946291234,-0.63,0.0,1.0156203930818422
2022-07-19 00:00:00,116.34876251220703,130.7357635498047,-1.105141592782232,-0.957,0.0,1.0156203930818422
2022-07-20 00:00:00,116.66932678222656,131.92237854003906,-1.106987374797022,-0.815,0.0,1.0156203930818422
2022-07-21 00:00:00,119.43791961669922,132.75994873046875,-1.107080205108502,-1.373,0.0,1.0156203930818422
2022-07-22 00:00:00,124.08138275146484,132.68019104003906,-1.1031809189389863,-2.339,1.0,1.0156203930818422
2022-07-25 00:00:00,123.2459487915039,133.2984161376953,-1.1003465664703087,-1.747,1.0,1.0226456826180272
2022-07-26 00:00:00,122.6145248413086,132.89956665039062,-1.0981015720635516,-1.51,1.0,1.0247806856030806
2022-07-27 00:00:00,123.30423736572266,133.58758544921875,-1.0960755757584244,-1.381,1.0,1.0254521875374791
2022-07-28 00:00:00,126.6362533569336,144.87525939941406,-1.0997105634648452,0.3,0.0,1.0507047026331673
2022-07-29 00:00:00,125.59681701660156,138.333984375,-1.099741618691553,-0.91,0.0,1.0507047026331673
2022-08-01 00:00:00,125.61624145507812,138.32406616210938,-1.0993849824034914,-0.869,0.0,1.0507047026331673
2022-08-02 00:00:00,123.0322265625,137.9152069091797,-1.1007381142487496,-0.241,0.0,1.0507047026331673
2022-08-03 00:00:00,124.57681274414062,136.6687774658203,-1.1000666282851868,-1.014,0.0,1.0507047026331673
2022-08-04 00:00:00,124.46995544433594,133.02919006347656,-1.096783968886083,-1.845,1.0,1.0507047026331673
2022-08-05 00:00:00,123.7219467163086,136.51919555664062,-1.096556762215758,-0.501,1.0,1.0666441656514412
2022-08-08 00:00:00,124.62538146972656,136.86819458007812,-1.0962004903576636,-0.661,1.0,1.0644602316427862
2022-08-09 00:00:00,124.15682983398438,135.45223999023438,-1.0952337562296075,-0.844,1.0,1.0615781154740422
2022-08-10 00:00:00,130.3553924560547,139.84967041015625,-1.092636845653804,-1.375,1.0,1.054305486635381
2022-08-11 00:00:00,130.16017150878906,140.84681701660156,-1.090966911404231,-0.903,1.0,1.059353480200374
2022-08-12 00:00:00,132.31747436523438,143.05050659179688,-1.0894415930927017,-0.853,1.0,1.0595344318890367
2022-08-15 00:00:00,133.13743591308594,142.5618896484375,-1.0871333270644987,-1.1,1.0,1.0557940893434867
2022-08-16 00:00:00,133.93789672851562,142.02345275878906,-1.0840181970864784,-1.308,1.0,1.0523422778232643
2022-08-17 00:00:00,130.98988342285156,143.70863342285156,-1.0844269233817982,0.009,1.0,1.069235413463141
2022-08-18 00:00:00,130.2968292236328,144.06759643554688,-1.0858707306204682,0.317,0.0,1.0724656571884916
2022-08-19 00:00:00,128.79356384277344,141.61460876464844,-1.0867263688719249,0.068,0.0,1.0724656571884916
2022-08-22 00:00:00,124.19589233398438,139.6103515625,-1.08947625107292,0.837,0.0,1.0724656571884916
2022-08-23 00:00:00,124.60586547851562,140.81689453125,-1.0926856385103143,0.909,0.0,1.0724656571884916
2022-08-24 00:00:00,124.95726776123047,144.69578552246094,-1.0980353172226314,1.73,-1.0,1.0724656571884916
2022-08-25 00:00:00,129.00833129882812,147.32826232910156,-1.1018935288934233,1.126,-1.0,1.0804574418760204
2022-08-26 00:00:00,123.03425598144531,144.21717834472656,-1.1076361922992783,2.069,-1.0,1.070599252571528
2022-08-29 00:00:00,122.9366455078125,144.4564666748047,-1.1133209441881662,1.847,-1.0,1.0718485544208889
2022-08-30 00:00:00,124.73274993896484,140.3582000732422,-1.1143900132773772,-0.001,-1.0,1.0941540906289078
2022-08-31 00:00:00,123.95185089111328,140.89666748046875,-1.1159016668227237,0.4,-1.0,1.089779961838236
2022-09-01 00:00:00,121.57003021240234,138.7029571533203,-1.117646786703993,0.477,-1.0,1.088862133280045
2022-09-02 00:00:00,120.80863189697266,140.19866943359375,-1.1208775518758414,1.059,-1.0,1.0817637702496632
2022-09-06 00:00:00,120.74030303955078,139.859619140625,-1.1238088055253626,0.843,-1.0,1.084000698277779
2022-09-07 00:00:00,124.79132080078125,142.02345275878906,-1.124833442795309,0.09,-1.0,1.0929124011497076
2022-09-08 00:00:00,124.71324157714844,146.1915283203125,-1.1285063839435598,1.176,-1.0,1.0796763464657064
2022-09-09 00:00:00,125.05489349365234,146.34107971191406,-1.1319509460950579,0.929,-1.0,1.081992327993986
2022-09-12 00:00:00,128.442138671875,145.2442169189453,-1.1317032876396367,-0.612,0.0,1.098851255851375
2022-09-13 00:00:00,121.52122497558594,141.04624938964844,-1.1336188168038588,0.418,0.0,1.098851255851375
2022-09-14 00:00:00,117.29447937011719,141.963623046875,-1.1395109849926688,1.859,-1.0,1.098851255851375
2022-09-15 00:00:00,117.56781005859375,138.48358154296875,-1.1427109820500738,0.595,-1.0,1.1141271692095995
2022-09-16 00:00:00,114.67839813232422,137.02774047851562,-1.1466921291844032,0.971,-1.0,1.1089531567516056
2022-09-19 00:00:00,116.38666534423828,140.87673950195312,-1.15176466145871,1.287,-1.0,1.1042254714228734
2022-09-20 00:00:00,113.8779525756836,138.17446899414062,-1.1566881398875812,1.116,-1.0,1.1056093370214335
2022-09-21 00:00:00,110.59806823730469,136.14027404785156,-1.1624770736480332,1.357,-1.0,1.1013806642663297
2022-09-22 00:00:00,109.25098419189453,135.3226318359375,-1.1684728953414774,1.327,-1.0,1.1010260255763265
2022-09-23 00:00:00,109.6414566040039,128.39247131347656,-1.1687891655405356,-0.897,0.0,1.1299536274113846
2022-09-26 00:00:00,108.51886749267578,125.3810806274414,-1.1672821517935605,-1.323,0.0,1.1299536274113846
2022-09-27 00:00:00,108.41148376464844,125.19163513183594,-1.1656490571901263,-1.275,0.0,1.1299536274113846
2022-09-28 00:00:00,110.59806823730469,129.82835388183594,-1.1656383952817466,-0.72,0.0,1.1299536274113846
2022-09-29 00:00:00,108.94837188720703,127.56483459472656,-1.165551381253641,-0.852,0.0,1.1299536274113846
2022-09-30 00:00:00,108.05032348632812,127.09591674804688,-1.1658856958527328,-0.72,0.0,1.1299536274113846
2022-10-03 00:00:00,111.46685028076172,131.0467987060547,-1.1662156869011804,-0.804,0.0,1.1299536274113846
2022-10-04 00:00:00,116.30856323242188,135.71597290039062,-1.165801858301117,-1.211,0.0,1.1299536274113846
2022-10-05 00:00:00,117.3628158569336,134.23939514160156,-1.1633656890365378,-1.912,1.0,1.1299536274113846
2022-10-06 00:00:00,114.92243194580078,131.91476440429688,-1.1612993800884432,-1.562,1.0,1.1327869611260801
2022-10-07 00:00:00,111.64256286621094,128.2332763671875,-1.1595358910859008,-1.393,1.0,1.1340454744825763
2022-10-10 00:00:00,108.10889434814453,128.7321319580078,-1.1613228018950141,-0.015,1.0,1.151361287366483
2022-10-11 00:00:00,108.11864471435547,129.1411895751953,-1.163652350658412,0.043,1.0,1.1519334172740958
2022-10-12 00:00:00,107.07416534423828,126.06830596923828,-1.1644878255937028,-0.522,1.0,1.1441691392403377
2022-10-13 00:00:00,109.54383087158203,129.90940856933594,-1.1658121809156499,-0.233,1.0,1.1473526729078527
2022-10-14 00:00:00,107.69889831542969,123.12510681152344,-1.1636336902544038,-1.559,1.0,1.129647356287249
2022-10-17 00:00:00,110.60783386230469,129.39060974121094,-1.1633879022940263,-0.574,1.0,1.1409146434713278
2022-10-18 00:00:00,113.95603942871094,133.1119842529297,-1.1632477849757232,-0.617,1.0,1.1403202238030563
2022-10-19 00:00:00,111.90612030029297,132.26397705078125,-1.1642761288213874,-0.136,1.0,1.1457342752755046
2022-10-20 00:00:00,105.82469940185547,130.43820190429688,-1.169282806998287,1.363,0.0,1.1643230698538325
2022-10-21 00:00:00,109.90499877929688,133.10202026367188,-1.1727670373469348,0.563,0.0,1.1643230698538325
2022-10-24 00:00:00,109.28025817871094,137.09280395507812,-1.1793396696609129,1.747,-1.0,1.1643230698538325
2022-10-25 00:00:00,110.26618194580078,142.02139282226562,-1.1885505203232363,2.302,-1.0,1.1542519499097215
2022-10-26 00:00:00,110.12952423095703,140.16567993164062,-1.1960303347781016,1.517,-1.0,1.1635097117949602
2022-10-27 00:00:00,109.68048858642578,139.93621826171875,-1.2029339374363317,1.333,-1.0,1.1651633856938908
2022-10-28 00:00:00,111.43757629394531,140.85406494140625,-1.2083039960022084,0.801,-1.0,1.171675946637616
2022-10-31 00:00:00,111.45708465576172,141.7120819091797,-1.2136757471385922,0.83,-1.0,1.17082490651198
2022-11-01 00:00:00,111.28137969970703,141.9415740966797,-1.2189290325350042,0.822,-1.0,1.1713359264474188
2022-11-02 00:00:00,107.4548568725586,136.46424865722656,-1.2231290354262836,0.47,-1.0,1.1760555907716317
2022-11-03 00:00:00,107.09368896484375,144.07662963867188,-1.232953945797465,2.155,-1.0,1.1506970681010984
2022-11-04 00:00:00,112.70655822753906,146.43118286132812,-1.2391745928282323,0.827,-1.0,1.1691069562104741
2022-11-07 00:00:00,113.56556701660156,146.91006469726562,-1.2440054731813834,0.549,-1.0,1.1730426113312906
2022-11-08 00:00:00,113.6827163696289,147.4188995361328,-1.2485299927425146,0.533,-1.0,1.1735653573597258
2022-11-09 00:00:00,112.05362701416016,142.70977783203125,-1.2506254108455885,-0.178,-1.0,1.1838534463312398
2022-11-10 00:00:00,122.48565673828125,146.7205047607422,-1.2455366596055037,-2.173,1.0,1.2119626108030273
2022-11-11 00:00:00,127.66732788085938,144.13648986816406,-1.2335127481969463,-3.259,1.0,1.187086870023355
2022-11-14 00:00:00,125.5770034790039,141.8617401123047,-1.2221897278305829,-2.563,1.0,1.1929296245812262
2022-11-15 00:00:00,127.08831787109375,143.71746826171875,-1.212076895196547,-2.106,1.0,1.1972748878046326
2022-11-16 00:00:00,126.58783721923828,146.39125061035156,-1.205456639457604,-1.336,1.0,1.2110495393334169
2022-11-17 00:00:00,124.30121612548828,148.40660095214844,-1.2032543486922522,-0.49,1.0,1.2279823737066824
2022-11-18 00:00:00,126.0775146484375,148.31680297851562,-1.200124418367514,-0.765,1.0,1.2218663287863145
2022-11-21 00:00:00,126.64671325683594,148.59617614746094,-1.196912000177268,-0.744,1.0,1.2218766766230704
2022-11-22 00:00:00,129.53195190429688,147.44882202148438,-1.1907589914198227,-1.31,1.0,1.2092686430303095
2022-11-23 00:00:00,130.58203125,145.8625030517578,-1.1829314396914608,-1.513,1.0,1.203226755304863
2022-11-25 00:00:00,130.87644958496094,148.17715454101562,-1.1770717884002606,-1.057,1.0,1.2122704704982148
2022-11-28 00:00:00,127.8734359741211,143.2285919189453,-1.1709790565432858,-1.09,1.0,1.2101040003357966
2022-11-29 00:00:00,129.37493896484375,144.21630859375,-1.164896933521839,-1.03,1.0,1.2101594802927664
2022-11-30 00:00:00,132.70181274414062,149.5340118408203,-1.1603830772954498,-0.701,1.0,1.2168847114166994
2022-12-01 00:00:00,132.44664001464844,151.37974548339844,-1.1579137472918892,-0.325,1.0,1.22498628594033
2022-12-02 00:00:00,134.7430877685547,152.71664428710938,-1.1549748315784891,-0.456,1.0,1.2219825028481437
2022-12-05 00:00:00,132.0835418701172,150.47183227539062,-1.1528324339317941,-0.284,1.0,1.2256485681715477
2022-12-06 00:00:00,129.58102416992188,149.24465942382812,-1.152077144474245,-0.028,1.0,1.2315296192022291
2022-12-07 00:00:00,127.02945709228516,147.96762084960938,-1.1526359842067113,0.204,0.0,1.236936033128482
2022-12-08 00:00:00,127.93231201171875,149.96299743652344,-1.1539096249310243,0.342,0.0,1.236936033128482
2022-12-09 00:00:00,127.98139190673828,147.79800415039062,-1.1536407016635308,0.039,0.0,1.236936033128482
2022-12-12 00:00:00,129.85581970214844,149.91311645507812,-1.1532238452274306,0.077,0.0,1.236936033128482
2022-12-13 00:00:00,131.57321166992188,152.18785095214844,-1.1530284612024577,0.18,0.0,1.236936033128482
2022-12-14 00:00:00,130.29742431640625,151.73890686035156,-1.1535551585857802,0.375,0.0,1.236936033128482
2022-12-15 00:00:00,126.37193298339844,144.48568725585938,-1.1522743598796945,0.0,0.0,1.236936033128482
2022-12-16 00:00:00,123.8203353881836,142.9392547607422,-1.1518731518986756,0.28,0.0,1.236936033128482
2022-12-19 00:00:00,123.29039764404297,142.0313720703125,-1.1513833010758407,0.279,0.0,1.236936033128482
2022-12-20 00:00:00,122.43659210205078,142.3306884765625,-1.1517910306058046,0.538,0.0,1.236936033128482
2022-12-21 00:00:00,124.78209686279297,144.37594604492188,-1.151803483555097,0.45,0.0,1.236936033128482
2022-12-22 00:00:00,123.51611328125,142.26083374023438,-1.1513336166523869,0.452,0.0,1.236936033128482
2022-12-23 00:00:00,124.36009979248047,143.86709594726562,-1.1512886992851818,0.655,0.0,1.236936033128482
2022-12-27 00:00:00,124.06568145751953,143.63763427734375,-1.151360968443916,0.737,0.0,1.236936033128482
2022-12-28 00:00:00,121.95571899414062,140.9937744140625,-1.1512920971137361,0.756,0.0,1.236936033128482
2022-12-29 00:00:00,124.04605102539062,142.37059020996094,-1.1505142358039306,0.565,0.0,1.236936033128482
2022-12-30 00:00:00,123.39834594726562,142.25079345703125,-1.150162015833523,0.685,0.0,1.236936033128482
2023-01-03 00:00:00,124.47785949707031,140.3640899658203,-1.1477441001932795,-0.092,0.0,1.236936033128482
2023-01-04 00:00:00,127.54957580566406,138.30770874023438,-1.1415394286920173,-1.564,1.0,1.236936033128482
2023-01-05 00:00:00,120.81732940673828,135.33291625976562,-1.1387255733121926,-0.145,1.0,1.2554413344568995
2023-01-06 00:00:00,126.10694885253906,138.87669372558594,-1.1347667585342136,-0.839,1.0,1.2484180605460868
2023-01-09 00:00:00,126.47005462646484,138.39755249023438,-1.1304381036729163,-0.91,1.0,1.2471963824615309
2023-01-10 00:00:00,127.36311340332031,139.26600646972656,-1.1263581919530987,-0.766,1.0,1.2485352804207104
2023-01-11 00:00:00,129.6300811767578,140.44395446777344,-1.1217310034825811,-0.991,1.0,1.2458218434526886
2023-01-12 00:00:00,129.16885375976562,147.55148315429688,-1.1226405429996922,1.392,0.0,1.2714828176586113
2023-01-13 00:00:00,129.93429565429688,148.24029541015625,-1.12386098186507,1.257,0.0,1.2714828176586113
2023-01-17 00:00:00,128.1874542236328,148.01071166992188,-1.1261723308032938,1.66,-1.0,1.2714828176586113
2023-01-18 00:00:00,125.40035247802734,144.0476531982422,-1.1278270775761117,1.246,-1.0,1.275097138197819
2023-01-19 00:00:00,121.29820251464844,143.2390594482422,-1.1318754538114497,2.287,-1.0,1.2632380871846722
2023-01-20 00:00:00,128.56039428710938,145.98423767089844,-1.1320984824182312,0.271,-1.0,1.2821158790515006
2023-01-23 00:00:00,127.8734359741211,149.28846740722656,-1.134712356758567,1.541,-1.0,1.269385439436591
2023-01-24 00:00:00,128.53094482421875,151.2450408935547,-1.1381331365844207,1.682,-1.0,1.2667947324413291
2023-01-25 00:00:00,125.76345825195312,148.62960815429688,-1.1416926811764339,1.588,-1.0,1.2664981171401126
2023-01-26 00:00:00,125.32184600830078,149.7975616455078,-1.146096035846726,1.804,-1.0,1.262680142133328
2023-01-27 00:00:00,124.97836303710938,149.7376708984375,-1.1504330556714328,1.627,-1.0,1.2633896750623268
2023-01-30 00:00:00,125.27278137207031,148.83926391601562,-1.153561764576096,1.095,-1.0,1.2689429811071216
2023-01-31 00:00:00,127.91268920898438,151.92384338378906,-1.1563381620877902,0.952,-1.0,1.2699964092395473
2023-02-01 00:00:00,129.5515594482422,152.60264587402344,-1.1580151628761064,0.504,-1.0,1.2747334345353045
2023-02-02 00:00:00,131.92649841308594,151.4147186279297,-1.156788544627768,-0.597,0.0,1.287154483562428
2023-02-03 00:00:00,128.29541015625,152.16342163085938,-1.158738294818698,0.763,0.0,1.287154483562428
2023-02-06 00:00:00,127.02945709228516,152.45291137695312,-1.1619889600753097,1.089,0.0,1.287154483562428
2023-02-07 00:00:00,128.82537841796875,153.30145263671875,-1.164244233916311,0.62,0.0,1.287154483562428
2023-02-08 00:00:00,127.95195007324219,152.0935516357422,-1.166084901373599,0.473,0.0,1.287154483562428
2023-02-09 00:00:00,126.46024322509766,152.19337463378906,-1.1689674152113851,0.859,0.0,1.287154483562428
2023-02-10 00:00:00,123.87922668457031,151.07530212402344,-1.1729841732581485,1.186,0.0,1.287154483562428
2023-02-13 00:00:00,126.34248352050781,154.02017211914062,-1.1768084609047422,1.011,0.0,1.287154483562428
2023-02-14 00:00:00,127.36311340332031,153.9303436279297,-1.179418842024427,0.542,0.0,1.287154483562428
2023-02-15 00:00:00,128.59963989257812,155.72718811035156,-1.1819205708308467,0.521,0.0,1.287154483562428
2023-02-16 00:00:00,127.34735870361328,155.0483856201172,-1.1847346172896698,0.61,0.0,1.287154483562428
2023-02-17 00:00:00,128.0967559814453,154.6291046142578,-1.1864548586427521,0.175,0.0,1.287154483562428
2023-02-21 00:00:00,124.43854522705078,148.43994140625,-1.1866842416226449,-0.338,0.0,1.287154483562428
2023-02-22 00:00:00,126.87407684326172,148.1404571533203,-1.1846096426340573,-1.14,0.0,1.287154483562428
2023-02-23 00:00:00,126.38104248046875,159.34085083007812,-1.1904477919986327,1.843,-1.0,1.287154483562428
2023-02-24 00:00:00,127.8995590209961,160.3590545654297,-1.1959717295204033,1.332,-1.0,1.2919291685163579
2023-02-27 00:00:00,129.7730255126953,162.6151123046875,-1.2009927729012917,1.107,-1.0,1.2939266818130102
2023-02-28 00:00:00,130.2167510986328,161.1177215576172,-1.2041575167212228,0.315,-1.0,1.301609151503532
2023-03-01 00:00:00,131.37042236328125,159.37078857421875,-1.204770122143489,-0.889,0.0,1.3117356891290335
2023-03-02 00:00:00,132.95794677734375,159.7700958251953,-1.2040875747344881,-1.67,1.0,1.3117356891290335
2023-03-03 00:00:00,135.5413818359375,162.83473205566406,-1.20332263913719,-1.555,1.0,1.3119125177886857
2023-03-06 00:00:00,131.7747039794922,163.08428955078125,-1.2057958534331432,0.225,0.0,1.3257525427737282
2023-03-07 00:00:00,129.08279418945312,162.68499755859375,-1.2102281154482677,1.093,0.0,1.3257525427737282
2023-03-08 00:00:00,129.3786163330078,162.14593505859375,-1.2138573981180356,0.519,0.0,1.3257525427737282
2023-03-09 00:00:00,125.62179565429688,160.26922607421875,-1.218896707504244,1.301,0.0,1.3257525427737282
2023-03-10 00:00:00,124.24134063720703,157.0748291015625,-1.2226451668883271,0.483,0.0,1.3257525427737282
2023-03-13 00:00:00,122.9693374633789,155.597412109375,-1.2260324904274211,0.339,0.0,1.3257525427737282
2023-03-14 00:00:00,127.35723114013672,159.4606475830078,-1.2280954382835416,-0.352,0.0,1.3257525427737282
2023-03-15 00:00:00,123.67929077148438,155.06832885742188,-1.2299516081596806,-0.369,0.0,1.3257525427737282
2023-03-16 00:00:00,124.7836685180664,156.93508911132812,-1.2319804150430103,-0.235,0.0,1.3257525427737282
2023-03-17 00:00:00,120.78032684326172,154.82875061035156,-1.2357702258028505,0.735,0.0,1.3257525427737282
2023-03-20 00:00:00,123.56095886230469,157.01490783691406,-1.23857373395695,0.088,0.0,1.3257525427737282
2023-03-21 00:00:00,124.83295440673828,161.33734130859375,-1.2429159606503404,0.949,0.0,1.3257525427737282
2023-03-22 00:00:00,121.88468933105469,158.28269958496094,-1.2474570468654531,0.919,0.0,1.3257525427737282
2023-03-23 00:00:00,121.78609466552734,158.69198608398438,-1.252014531180415,0.872,0.0,1.3257525427737282
2023-03-24 00:00:00,123.68914794921875,160.4988250732422,-1.255808981892201,0.409,0.0,1.3257525427737282
2023-03-27 00:00:00,124.24134063720703,162.1658935546875,-1.2598791751228742,0.594,0.0,1.3257525427737282
2023-03-28 00:00:00,124.45826721191406,162.99444580078125,-1.2640107673970025,0.581,0.0,1.3257525427737282
2023-03-29 00:00:00,126.4500732421875,165.17063903808594,-1.267561616696855,0.226,0.0,1.3257525427737282
2023-03-30 00:00:00,128.01788330078125,166.22879028320312,-1.2701142920111286,-0.293,0.0,1.3257525427737282
2023-03-31 00:00:00,131.7155303955078,166.34857177734375,-1.269240225585516,-1.967,1.0,1.3257525427737282
2023-04-03 00:00:00,138.08535766601562,165.50006103515625,-1.2621234874574385,-3.735,1.0,1.3023532405959515
2023-04-04 00:00:00,136.38937377929688,162.3655548095703,-1.2544792370246038,-3.044,1.0,1.3024990719885934
2023-04-05 00:00:00,137.01058959960938,159.63034057617188,-1.2451871960658418,-2.977,1.0,1.2957117411845878
2023-04-06 00:00:00,136.14288330078125,158.93121337890625,-1.2368910342559458,-2.34,1.0,1.3003273140484055
2023-04-10 00:00:00,136.40908813476562,161.33819580078125,-1.2308360359038601,-1.646,1.0,1.3091467566189219
2023-04-11 00:00:00,137.35569763183594,163.52545166015625,-1.2262183369257722,-1.273,1.0,1.314136617877878
2023-04-12 00:00:00,136.0836944580078,164.7938690185547,-1.2240094058680187,-0.706,1.0,1.3235787818422693
2023-04-13 00:00:00,137.3458251953125,164.8338165283203,-1.2212287588017112,-0.859,1.0,1.320201986789824
2023-04-14 00:00:00,136.4879913330078,165.8126220703125,-1.2199759439065778,-0.414,1.0,1.326814228347425
2023-04-17 00:00:00,138.96295166015625,166.64157104492188,-1.2175474701882631,-0.716,1.0,1.3212967208994386
2023-04-18 00:00:00,139.63343811035156,167.58038330078125,-1.2153277050998985,-0.598,1.0,1.3225787880826545
2023-04-19 00:00:00,138.58824157714844,165.8026123046875,-1.2130053141475943,-0.611,1.0,1.3220227756207388
2023-04-20 00:00:00,139.47569274902344,167.08102416992188,-1.2110185864349163,-0.511,1.0,1.3234485055027652
2023-04-21 00:00:00,139.998291015625,165.5928955078125,-1.2078858309809253,-0.801,1.0,1.3184217640437832
2023-04-24 00:00:00,140.96463012695312,168.05979919433594,-1.2057797736364129,-0.472,1.0,1.3231448538490058
2023-04-25 00:00:00,138.4699249267578,167.01112365722656,-1.2051985196101753,-0.059,1.0,1.3292541891690481
2023-04-26 00:00:00,135.7188720703125,163.86505126953125,-1.20490022231202,0.007,1.0,1.329895550393001
2023-04-27 00:00:00,136.99085998535156,168.7589111328125,-1.2067905978937548,0.637,0.0,1.3391816314075795
2023-04-28 00:00:00,138.3022918701172,169.42807006835938,-1.208110103062605,0.444,0.0,1.3391816314075795
2023-05-01 00:00:00,137.80926513671875,168.99862670898438,-1.2093717636086896,0.462,0.0,1.3391816314075795
2023-05-02 00:00:00,137.65150451660156,167.90997314453125,-1.209947472944323,0.277,0.0,1.3391816314075795
2023-05-03 00:00:00,136.40908813476562,168.00987243652344,-1.2114352575002942,0.561,0.0,1.3391816314075795
2023-05-04 00:00:00,133.60874938964844,165.14346313476562,-1.2132044502140433,0.62,0.0,1.3391816314075795
2023-05-05 00:00:00,136.10340881347656,170.85630798339844,-1.2165547625282673,1.074,0.0,1.3391816314075795
2023-05-08 00:00:00,136.74435424804688,168.66905212402344,-1.2178557289265008,0.453,0.0,1.3391816314075795
2023-05-09 00:00:00,135.83311462402344,170.78639221191406,-1.2209302701826927,1.041,0.0,1.3391816314075795
2023-05-10 00:00:00,135.5557861328125,171.21583557128906,-1.2243722905462304,1.118,0.0,1.3391816314075795
2023-05-11 00:00:00,135.93215942382812,171.37564086914062,-1.227356268625814,0.994,0.0,1.3391816314075795
2023-05-12 00:00:00,136.78396606445312,173.63282775878906,-1.2308148333035445,1.147,0.0,1.3391816314075795
2023-05-15 00:00:00,139.2898712158203,174.59161376953125,-1.2326557351025882,0.676,0.0,1.3391816314075795
2023-05-16 00:00:00,138.0022430419922,169.47802734375,-1.2319648447613176,-0.016,0.0,1.3391816314075795
2023-05-17 00:00:00,141.0529022216797,169.5479278564453,-1.228799238933473,-0.678,0.0,1.3391816314075795
2023-05-18 00:00:00,141.2113800048828,171.67527770996094,-1.2269457523659395,-0.16,0.0,1.3391816314075795
2023-05-19 00:00:00,141.04299926757812,171.49551391601562,-1.2253826609218095,-0.101,0.0,1.3391816314075795
2023-05-22 00:00:00,139.33937072753906,170.77639770507812,-1.2248442033357072,0.174,0.0,1.3391816314075795
2023-05-23 00:00:00,135.5756072998047,166.40187072753906,-1.224581950163412,0.185,0.0,1.3391816314075795
2023-05-24 00:00:00,132.138671875,166.3519287109375,-1.2269920348577485,1.153,0.0,1.3391816314075795
2023-05-25 00:00:00,131.7721710205078,172.6340789794922,-1.2336904301889462,2.634,-1.0,1.3391816314075795
2023-05-26 00:00:00,132.45559692382812,173.7826385498047,-1.2403847301277267,2.29,-1.0,1.3409009772243723
2023-05-30 00:00:00,133.06971740722656,180.9436798095703,-1.2506033531315532,3.083,-1.0,1.3263930023749064
2023-05-31 00:00:00,130.0388641357422,177.35816955566406,-1.2604064665028971,2.472,-1.0,1.3295281507480414
2023-06-01 00:00:00,133.69369506835938,175.830078125,-1.265449271033359,0.927,-1.0,1.349263238160059
2023-06-02 00:00:00,138.2498779296875,179.8550567626953,-1.2685530281537123,0.418,-1.0,1.3553711662153067
2023-06-05 00:00:00,136.60568237304688,179.006103515625,-1.2720113812818408,0.545,-1.0,1.353204414140688
2023-06-06 00:00:00,137.89329528808594,181.3931121826172,-1.2756703360543666,0.558,-1.0,1.3525198202509823
2023-06-07 00:00:00,140.49822998046875,183.70022583007812,-1.2783687612538719,0.201,-1.0,1.356359662090446
2023-06-08 00:00:00,139.82470703125,183.1409149169922,-1.280934208417687,0.151,-1.0,1.3565170494169938
2023-06-09 00:00:00,138.33900451660156,182.6016082763672,-1.2841228524782593,0.325,-1.0,1.353955835739598
2023-06-12 00:00:00,138.6559600830078,185.14842224121094,-1.2884331804148337,0.663,-1.0,1.3497167961475096
2023-06-13 00:00:00,139.97329711914062,184.76890563964844,-1.291135256977115,0.008,-1.0,1.356433842616959
2023-06-14 00:00:00,139.35919189453125,184.85877990722656,-1.2940236664436864,0.102,-1.0,1.3551188093789168
2023-06-15 00:00:00,139.92376708984375,185.56790161132812,-1.2966552934787183,-0.006,-1.0,1.3561806030694505
2023-06-16 00:00:00,141.71652221679688,185.71771240234375,-1.2976610774063406,-0.608,0.0,1.3624500827598807
2023-06-20 00:00:00,140.68641662597656,185.5179443359375,-1.2991609666700132,-0.369,0.0,1.3624500827598807
2023-06-21 00:00:00,140.98355102539062,190.70147705078125,-1.3035725649301546,0.683,0.0,1.3624500827598807
2023-06-22 00:00:00,139.4285430908203,189.07351684570312,-1.3080704343392524,0.591,0.0,1.3624500827598807
2023-06-23 00:00:00,137.5664520263672,186.37689208984375,-1.312020872396852,0.359,0.0,1.3624500827598807
2023-06-26 00:00:00,139.73558044433594,190.27200317382812,-1.316242952071416,0.469,0.0,1.3624500827598807
2023-06-27 00:00:00,143.0536346435547,194.41683959960938,-1.3199677844780853,0.247,0.0,1.3624500827598807
2023-06-28 00:00:00,141.93441772460938,193.47799682617188,-1.3236502406077788,0.246,0.0,1.3624500827598807
2023-06-29 00:00:00,143.98468017578125,194.60659790039062,-1.3260075510741025,-0.246,0.0,1.3624500827598807
2023-06-30 00:00:00,146.88677978515625,196.28518676757812,-1.3266973811996183,-0.809,0.0,1.3624500827598807
2023-07-03 00:00:00,147.64942932128906,195.54580688476562,-1.3261127101815877,-1.173,0.0,1.3624500827598807
2023-07-05 00:00:00,144.78697204589844,194.98626708984375,-1.3274790590820849,-0.401,0.0,1.3624500827598807
2023-07-06 00:00:00,143.8460235595703,192.36846923828125,-1.328027619893452,-0.794,0.0,1.3624500827598807
2023-07-07 00:00:00,145.37135314941406,193.4375762939453,-1.3278775913757805,-1.126,0.0,1.3624500827598807
2023-07-10 00:00:00,146.49057006835938,199.62237548828125,-1.3305659699420802,-0.006,0.0,1.3624500827598807
2023-07-11 00:00:00,149.1549530029297,199.7822265625,-1.3311505852849341,-1.048,0.0,1.3624500827598807
2023-07-12 00:00:00,150.22463989257812,198.26351928710938,-1.3297353090255701,-1.795,1.0,1.3624500827598807
2023-07-13 00:00:00,150.06617736816406,198.10365295410156,-1.3283374809165653,-1.672,1.0,1.3631058098424034
2023-07-14 00:00:00,148.31304931640625,195.96543884277344,-1.3271862440312698,-1.476,1.0,1.3640255423355812
2023-07-17 00:00:00,149.75912475585938,199.1427764892578,-1.3269171848009484,-1.065,1.0,1.367289046832272
2023-07-18 00:00:00,149.92750549316406,199.44253540039062,-1.3267829260404604,-0.983,1.0,1.3675311890668986
2023-07-19 00:00:00,148.8280792236328,199.7822265625,-1.327749486853704,-0.485,1.0,1.371694719779295
2023-07-20 00:00:00,148.29324340820312,199.81222534179688,-1.3291510255523638,-0.25,1.0,1.3730357782926579
2023-07-21 00:00:00,147.9267578125,201.3209686279297,-1.3316523865224223,0.44,0.0,1.3771176441332122
2023-07-24 00:00:00,144.47991943359375,203.6389923095703,-1.338151656041718,2.535,-1.0,1.3771176441332122
2023-07-25 00:00:00,145.6090545654297,205.2276611328125,-1.3444240642310215,2.047,-1.0,1.3792015087259952
2023-07-26 00:00:00,144.78697204589844,202.47996520996094,-1.349152088010865,1.204,-1.0,1.3850509555207617
2023-07-27 00:00:00,143.4201202392578,201.46084594726562,-1.3538603208628177,1.196,-1.0,1.3846725318475261
2023-07-28 00:00:00,144.02432250976562,200.31179809570312,-1.356983791870278,0.381,-1.0,1.3907796860119017
2023-07-31 00:00:00,142.5286865234375,201.45083618164062,-1.3616353114096826,1.169,-1.0,1.3844447387150567
2023-08-01 00:00:00,144.16297912597656,201.7206268310547,-1.3648233142556205,0.399,-1.0,1.3905055856058648
2023-08-02 00:00:00,140.41900634765625,202.1502685546875,-1.3709822993015288,1.789,-1.0,1.3786608636725792
2023-08-03 00:00:00,138.94320678710938,203.1693878173828,-1.378699151057444,2.164,-1.0,1.3736695813649256
2023-08-04 00:00:00,139.23043823242188,200.11195373535156,-1.3838031500761716,0.919,-1.0,1.384271132975615
2023-08-07 00:00:00,141.89479064941406,201.95040893554688,-1.3871638717701764,0.23,-1.0,1.3901022750715313
2023-08-08 00:00:00,141.96414184570312,202.52993774414062,-1.3904026724062013,0.217,-1.0,1.3900434284447623
2023-08-09 00:00:00,138.74038696289062,203.26931762695312,-1.3965483646694865,1.418,-1.0,1.3790390337695864
2023-08-10 00:00:00,138.75033569335938,200.26182556152344,-1.4005555401216607,0.42,-1.0,1.388105123981838
2023-08-11 00:00:00,135.95443725585938,200.00204467773438,-1.4063221011322846,1.182,-1.0,1.3807634651271514
2023-08-14 00:00:00,138.92942810058594,203.36923217773438,-1.4112480671010406,0.756,-1.0,1.384521214394574
2023-08-15 00:00:00,138.17323303222656,203.02951049804688,-1.4161470585166607,0.75,-1.0,1.3843944341843373
2023-08-16 00:00:00,136.9494171142578,200.6015625,-1.4202089223084757,0.403,-1.0,1.3875610244146743
2023-08-17 00:00:00,137.37725830078125,200.2418670654297,-1.4232722431448643,0.017,-1.0,1.3910685163284877
2023-08-18 00:00:00,138.82992553710938,202.89962768554688,-1.4263676465325765,0.033,-1.0,1.390668226532657
2023-08-21 00:00:00,137.90460205078125,203.3992156982422,-1.4303328548853251,0.342,-1.0,1.3874918303035297
2023-08-22 00:00:00,137.66580200195312,206.45664978027344,-1.436144481632773,1.021,-1.0,1.381061442345084
2023-08-23 00:00:00,137.1583709716797,208.0752716064453,-1.4430721137405687,1.328,-1.0,1.3776201437756055
2023-08-24 00:00:00,136.56137084960938,201.39089965820312,-1.4458741531622257,-0.442,0.0,1.3931789779189092
2023-08-25 00:00:00,137.67575073242188,205.09779357910156,-1.44942836942502,0.011,0.0,1.3931789779189092
2023-08-28 00:00:00,138.13343811035156,207.50575256347656,-1.4538279662265714,0.297,0.0,1.3931789779189092
2023-08-29 00:00:00,140.2527618408203,208.42498779296875,-1.4565613858580755,-0.533,0.0,1.3931789779189092
2023-08-30 00:00:00,141.32733154296875,209.464111328125,-1.4585943501571426,-0.893,0.0,1.3931789779189092
2023-08-31 00:00:00,141.04873657226562,209.69390869140625,-1.460788091841678,-0.895,0.0,1.3931789779189092
2023-09-01 00:00:00,141.2974853515625,212.18182373046875,-1.4641219037586322,-0.368,0.0,1.3931789779189092
2023-09-05 00:00:00,135.7852783203125,208.6348114013672,-1.4700792385308818,1.057,0.0,1.3931789779189092
2023-09-06 00:00:00,136.3623809814453,208.91458129882812,-1.4753912533064073,0.471,0.0,1.3931789779189092
2023-09-07 00:00:00,135.49673461914062,208.52490234375,-1.4807665292430603,0.496,0.0,1.3931789779189092
2023-09-08 00:00:00,135.01914978027344,206.32675170898438,-1.4847664072623534,-0.47,0.0,1.3931789779189092
2023-09-11 00:00:00,135.6658935546875,204.8679656982422,-1.4868051336398307,-1.635,1.0,1.3931789779189092
2023-09-12 00:00:00,133.16847229003906,204.3184356689453,-1.4905145045985502,-0.342,1.0,1.3998066457623048
2023-09-13 00:00:00,132.3326873779297,200.16192626953125,-1.4922162271528308,-1.707,1.0,1.3919200521725823
2023-09-14 00:00:00,133.71571350097656,202.61985778808594,-1.4938685610853621,-1.515,1.0,1.3923505339496776
2023-09-15 00:00:00,133.12867736816406,199.07284545898438,-1.4936851858546432,-2.396,1.0,1.3857019348007664
2023-09-18 00:00:00,131.82525634765625,197.5341339111328,-1.4936286714050648,-2.015,1.0,1.3867557007998472
2023-09-19 00:00:00,131.54666137695312,195.96543884277344,-1.4928513591733181,-2.177,1.0,1.3840786572113049
2023-09-20 00:00:00,130.14373779296875,195.086181640625,-1.4928561844824064,-1.636,1.0,1.3871977078596145
2023-09-21 00:00:00,127.64631652832031,186.3135528564453,-1.4896808897112037,-2.866,1.0,1.3748751464537354
2023-09-22 00:00:00,129.4770965576172,188.29190063476562,-1.486010772777874,-2.56,1.0,1.3741561108652258
2023-09-25 00:00:00,131.38746643066406,187.42262268066406,-1.4802046821826524,-2.857,1.0,1.36644404550567
2023-09-26 00:00:00,127.9647216796875,184.69491577148438,-1.4762104799397187,-1.95,1.0,1.3740719625754128
2023-09-27 00:00:00,127.38762664794922,189.96047973632812,-1.4766643440442655,-0.485,1.0,1.3900998756986211
2023-09-28 00:00:00,129.90493774414062,188.76148986816406,-1.4742545266636873,-1.481,1.0,1.3779950223661261
2023-09-29 00:00:00,129.1487579345703,186.9922332763672,-1.4713740399966357,-1.45,1.0,1.377245871032959
2023-10-02 00:00:00,128.7209014892578,176.56655883789062,-1.4622846646408754,-2.884,1.0,1.3535991968370689
2023-10-03 00:00:00,128.0045166015625,169.29957580566406,-1.4493336215743284,-3.104,1.0,1.3407430394110613
2023-10-04 00:00:00,132.5515899658203,171.6785888671875,-1.4343845837360862,-2.906,1.0,1.3345804030239465
2023-10-05 00:00:00,130.67108154296875,168.16004943847656,-1.420019749485378,-2.411,1.0,1.3375655735736336
2023-10-06 00:00:00,132.46205139160156,172.63819885253906,-1.4082090363633717,-1.783,1.0,1.3473085482436877
2023-10-09 00:00:00,128.1139678955078,173.8177032470703,-1.4024141207472895,-0.714,1.0,1.3700673341300278
2023-10-10 00:00:00,129.6263427734375,177.55615234375,-1.398679115744137,-0.406,1.0,1.375923706102121
2023-10-11 00:00:00,131.8551025390625,179.24545288085938,-1.3945032743015287,-0.477,1.0,1.373507374160208
2023-10-12 00:00:00,129.40744018554688,177.83604431152344,-1.3919643269759188,-0.141,1.0,1.3800231311356421
2023-10-13 00:00:00,127.81547546386719,173.45785522460938,-1.3883546292796263,-0.336,1.0,1.3751761600935901
2023-10-16 00:00:00,129.6959991455078,176.30667114257812,-1.3851100925222823,-0.21,1.0,1.3770269418464005
2023-10-17 00:00:00,130.79046630859375,179.32540893554688,-1.3831644940599148,0.058,1.0,1.3819050623137181
2023-10-18 00:00:00,127.13888549804688,171.96847534179688,-1.3799739186011435,-0.183,1.0,1.3764345429128566
2023-10-19 00:00:00,123.71614074707031,168.6698455810547,-1.3778744078027787,0.079,1.0,1.3814013300486452
2023-10-20 00:00:00,124.09423828125,164.63153076171875,-1.3730046557286848,-0.447,1.0,1.369595902540269
2023-10-23 00:00:00,123.06940460205078,165.40121459960938,-1.36972631550587,-0.021,1.0,1.377321831256971
2023-10-24 00:00:00,122.2336196899414,167.1804656982422,-1.3688045849069923,0.497,0.0,1.3864003512893581
2023-10-25 00:00:00,120.87049865722656,168.16004943847656,-1.3700797122871395,0.983,0.0,1.3864003512893581
2023-10-26 00:00:00,121.39783477783203,167.1804656982422,-1.370305640416474,0.744,0.0,1.3864003512893581
2023-10-27 00:00:00,120.11431121826172,164.80145263671875,-1.369997927192009,0.669,0.0,1.3864003512893581
2023-10-30 00:00:00,121.20878601074219,164.69149780273438,-1.3685712070513332,0.477,0.0,1.3864003512893581
2023-10-31 00:00:00,122.15401458740234,167.05052185058594,-1.367881343176427,0.706,0.0,1.3864003512893581
2023-11-01 00:00:00,122.35301971435547,159.5536346435547,-1.3620131531698496,-0.528,0.0,1.3864003512893581
2023-11-02 00:00:00,124.2932357788086,175.00721740722656,-1.3648983579634877,1.683,-1.0,1.3864003512893581
2023-11-03 00:00:00,127.66622161865234,169.1096649169922,-1.3611887924888555,-0.077,-1.0,1.4156453639065127
2023-11-06 00:00:00,127.1090316772461,168.3899688720703,-1.357220438132087,0.041,-1.0,1.4140520800690233
2023-11-07 00:00:00,127.16873168945312,165.01136779785156,-1.3512225954180426,-0.413,0.0,1.4220584095397268
2023-11-08 00:00:00,128.90000915527344,169.68942260742188,-1.3471555815398155,0.113,0.0,1.4220584095397268
2023-11-09 00:00:00,127.37000274658203,169.49951171875,-1.3448960421999194,0.495,0.0,1.4220584095397268
2023-11-10 00:00:00,128.80999755859375,173.9976348876953,-1.3447355447424842,0.916,0.0,1.4220584095397268
2023-11-13 00:00:00,129.27999877929688,176.16673278808594,-1.345820347854135,1.113,0.0,1.4220584095397268
2023-11-14 00:00:00,133.50999450683594,182.77398681640625,-1.3475349018622407,1.222,0.0,1.4220584095397268
2023-11-15 00:00:00,133.6199951171875,183.64361572265625,-1.349629162404712,1.239,0.0,1.4220584095397268
2023-11-16 00:00:00,135.16000366210938,183.2238006591797,-1.3498932390913252,0.776,0.0,1.4220584095397268
2023-11-17 00:00:00,135.8699951171875,183.03387451171875,-1.3492065476634036,0.552,0.0,1.4220584095397268
2023-11-20 00:00:00,135.55999755859375,184.05345153808594,-1.3494524457614883,0.764,0.0,1.4220584095397268
2023-11-21 00:00:00,136.5800018310547,183.2837677001953,-1.3483419836781856,0.338,0.0,1.4220584095397268
2023-11-22 00:00:00,136.63999938964844,183.73358154296875,-1.3474602667104072,0.412,0.0,1.4220584095397268
2023-11-24 00:00:00,136.4499969482422,182.50408935546875,-1.3460429617597498,0.122,0.0,1.4220584095397268
2023-11-27 00:00:00,137.2899932861328,185.63279724121094,-1.346014807552318,0.735,0.0,1.4220584095397268
2023-11-28 00:00:00,138.0800018310547,181.2646026611328,-1.3425761024755911,-0.932,0.0,1.4220584095397268
2023-11-29 00:00:00,139.5500030517578,185.5328369140625,-1.340657943791443,-0.102,0.0,1.4220584095397268
2023-11-30 00:00:00,141.99000549316406,188.23170471191406,-1.3386809938035344,-0.207,0.0,1.4220584095397268
2023-12-01 00:00:00,143.6300048828125,190.4707794189453,-1.3369187782785352,-0.132,0.0,1.4220584095397268
2023-12-04 00:00:00,143.14999389648438,189.5611572265625,-1.335173943018429,-0.158,0.0,1.4220584095397268
2023-12-05 00:00:00,142.64999389648438,189.3512420654297,-1.3338874036331378,0.061,0.0,1.4220584095397268
2023-12-06 00:00:00,142.6999969482422,191.77024841308594,-1.3342473181204653,0.82,0.0,1.4220584095397268
2023-12-07 00:00:00,144.97999572753906,194.2991943359375,-1.334381388842769,0.603,0.0,1.4220584095397268
2023-12-08 00:00:00,143.97999572753906,199.1671600341797,-1.3383773703854192,2.337,-1.0,1.4220584095397268
2023-12-11 00:00:00,145.83999633789062,201.67611694335938,-1.3423114012885258,1.959,-1.0,1.4234527496485696
2023-12-12 00:00:00,145.3699951171875,205.18466186523438,-1.3484452872548758,2.584,-1.0,1.4153578244261713
2023-12-13 00:00:00,147.47000122070312,210.1925811767578,-1.3555169689887285,2.554,-1.0,1.4125942524984763
2023-12-14 00:00:00,149.14999389648438,215.7102813720703,-1.3639788784791267,2.632,-1.0,1.407874322604585
2023-12-15 00:00:00,148.67999267578125,214.9306182861328,-1.3716470962412164,2.109,-1.0,1.4109270854338796
2023-12-18 00:00:00,148.75,214.91061401367188,-1.378455141731919,1.725,-1.0,1.4136148119475955
2023-12-19 00:00:00,149.50999450683594,217.61949157714844,-1.3855659570229077,1.702,-1.0,1.4122067238095843
2023-12-20 00:00:00,146.32000732421875,212.8114776611328,-1.3918015186082364,1.381,-1.0,1.4153293863584029
2023-12-21 00:00:00,147.75,212.36167907714844,-1.3959223348346133,0.786,-1.0,1.4226128266881715
2023-12-22 00:00:00,148.75,213.9510040283203,-1.3996243341142605,0.671,-1.0,1.423459146487759
2023-12-26 00:00:00,149.69000244140625,214.5707550048828,-1.4025316300438366,0.408,-1.0,1.426123576569016
2023-12-27 00:00:00,150.16000366210938,215.86021423339844,-1.4054894021909368,0.398,-1.0,1.4256875848509165
2023-12-28 00:00:00,150.3800048828125,216.3800048828125,-1.4083018554108961,0.31,-1.0,1.4261835565509984
2023-12-29 00:00:00,149.5500030517578,215.8000030517578,-1.4111969187334923,0.307,-1.0,1.4258182371981893
2024-01-02 00:00:00,147.27999877929688,209.27000427246094,-1.411845270545169,-0.463,0.0,1.4340205648023612
2024-01-03 00:00:00,145.6199951171875,201.74000549316406,-1.4091701293358836,-1.453,0.0,1.4340205648023612
2024-01-04 00:00:00,144.91000366210938,200.07000732421875,-1.406086982549446,-1.414,0.0,1.4340205648023612
2024-01-05 00:00:00,145.94000244140625,199.0800018310547,-1.4017804330004078,-1.663,1.0,1.4340205648023612
2024-01-08 00:00:00,147.38999938964844,205.57000732421875,-1.4004351462362197,-0.714,1.0,1.4453213763617507
2024-01-09 00:00:00,146.22999572753906,204.10000610351562,-1.3995136538814523,-0.654,1.0,1.4460290408916792
2024-01-10 00:00:00,147.2899932861328,203.63999938964844,-1.397540350119224,-0.952,1.0,1.4419926413004154
2024-01-11 00:00:00,146.38999938964844,202.47000122070312,-1.395718411965412,-0.873,1.0,1.4428640831311823
2024-01-12 00:00:00,145.5500030517578,202.4600067138672,-1.394762302156745,-0.616,1.0,1.4460741187244341
2024-01-16 00:00:00,143.75999450683594,201.3699951171875,-1.394793834214875,-0.355,1.0,1.449562902526401
2024-01-17 00:00:00,143.0800018310547,200.16000366210938,-1.3947365962689129,-0.404,1.0,1.4489290764888898
2024-01-18 00:00:00,144.9499969482422,201.91000366210938,-1.3941621974997618,-0.593,1.0,1.4470109987711282
2024-01-19 00:00:00,141.38999938964844,202.42999267578125,-1.3969016513053447,0.401,0.0,1.4597526555469689
2024-01-22 00:00:00,142.13999938964844,203.4600067138672,-1.3996422013419922,0.284,0.0,1.4597526555469689
2024-01-23 00:00:00,142.44000244140625,195.55999755859375,-1.3971247255220478,-1.331,0.0,1.4597526555469689
2024-01-24 00:00:00,141.02999877929688,193.27999877929688,-1.3942473154654773,-1.285,0.0,1.4597526555469689
2024-01-25 00:00:00,142.7899932861328,197.99000549316406,-1.39295359950115,-0.794,0.0,1.4597526555469689
2024-01-26 00:00:00,143.0399932861328,196.3000030517578,-1.3906511871964613,-1.095,0.0,1.4597526555469689
2024-01-29 00:00:00,142.86000061035156,197.05999755859375,-1.3890858851433914,-0.831,0.0,1.4597526555469689
2024-01-30 00:00:00,143.07000732421875,197.25,-1.3876479409450742,-0.765,0.0,1.4597526555469689
2024-01-31 00:00:00,141.0399932861328,194.0500030517578,-1.3861092568950615,-0.754,0.0,1.4597526555469689
2024-02-01 00:00:00,141.5,200.25999450683594,-1.3880859721178909,0.32,0.0,1.4597526555469689
2024-02-02 00:00:00,140.08999633789062,204.5,-1.3939367626566155,1.42,0.0,1.4597526555469689
2024-02-05 00:00:00,137.57000732421875,202.19000244140625,-1.4003292494943207,1.548,-1.0,1.4597526555469689
2024-02-06 00:00:00,139.88999938964844,206.11000061035156,-1.406646341573657,1.542,-1.0,1.4602799826678192
2024-02-07 00:00:00,139.3699951171875,208.89999389648438,-1.4145880817294845,1.999,-1.0,1.4543334036763922
2024-02-08 00:00:00,138.6300048828125,207.77000427246094,-1.4219365609157224,1.765,-1.0,1.457054931968386
2024-02-09 00:00:00,139.5800018310547,210.11000061035156,-1.429232211630794,1.725,-1.0,1.457126137624084
2024-02-12 00:00:00,140.89999389648438,211.60000610351562,-1.4356555879398132,1.408,-1.0,1.4602710375922363
