Date,x,y,hr,zScore,numUnits,cum rets
2022-02-09 00:00:00-05:00,151.2157745361328,30.64798355102539,-0.19893859593232835,0.684,0.0,1.0
2022-02-10 00:00:00-05:00,148.15269470214844,30.237388610839844,-0.1992858480906305,0.926,0.0,1.0
2022-02-11 00:00:00-05:00,144.38653564453125,30.0418701171875,-0.19993651683530295,1.681,-1.0,1.0
2022-02-14 00:00:00-05:00,143.77967834472656,30.149404525756836,-0.2006895435953162,1.753,-1.0,0.9979561315894201
2022-02-15 00:00:00-05:00,146.06251525878906,30.599102020263672,-0.20138269900455147,1.452,-1.0,0.9997838521286297
2022-02-16 00:00:00-05:00,146.28407287597656,30.667537689208984,-0.20202739780635232,1.25,-1.0,1.0009543981583293
2022-02-17 00:00:00-05:00,144.12770080566406,30.491567611694336,-0.2027682086926736,1.412,-1.0,0.9983938686953007
2022-02-18 00:00:00-05:00,144.69822692871094,30.43290901184082,-0.20335112163705113,0.946,-1.0,1.0027156298873043
2022-02-22 00:00:00-05:00,141.82630920410156,30.29604721069336,-0.20414056320160798,1.394,-1.0,0.9970584060932154
2022-02-23 00:00:00-05:00,135.9664306640625,29.631269454956055,-0.20520061422494487,1.836,-1.0,0.9903259432165844
2022-02-24 00:00:00-05:00,133.16220092773438,30.892385482788086,-0.20730747783182887,3.4,-1.0,0.9637268524642418
2022-02-25 00:00:00-05:00,136.43060302734375,31.410518646240234,-0.20923550881142294,2.49,-1.0,0.970773168340145
2022-02-28 00:00:00-05:00,129.04290771484375,31.899320602416992,-0.21224892851943303,3.404,-1.0,0.9430155322694803
2022-03-01 00:00:00-05:00,122.32241821289062,32.417449951171875,-0.21634151044625644,3.573,-1.0,0.9184925996372311
2022-03-02 00:00:00-05:00,124.52713012695312,33.31685256958008,-0.2205102933544002,2.913,-1.0,0.920083590746412
2022-03-03 00:00:00-05:00,123.82124328613281,32.73028564453125,-0.22412807835885443,2.13,-1.0,0.9346146702699933
2022-03-04 00:00:00-05:00,119.85662841796875,33.24842071533203,-0.22835229912843877,2.333,-1.0,0.919760726613496
2022-03-07 00:00:00-05:00,110.71871185302734,33.19953918457031,-0.2336809449483421,2.648,-1.0,0.8952517831575926
2022-03-08 00:00:00-05:00,113.8517074584961,31.840662002563477,-0.23742185407928196,1.388,-1.0,0.9380043120270845
2022-03-09 00:00:00-05:00,118.00003051757812,31.987308502197266,-0.24023036624693078,0.807,-1.0,0.9573905768054531
2022-03-10 00:00:00-05:00,117.18777465820312,31.8699893951416,-0.24281423689018017,0.664,-1.0,0.9611201946516552
2022-03-11 00:00:00-05:00,116.25948333740234,31.478954315185547,-0.24508727179354498,0.44,-1.0,0.9682883692010759
2022-03-14 00:00:00-04:00,117.92268371582031,32.612972259521484,-0.2476594541024793,0.602,-1.0,0.9614445288007948
2022-03-15 00:00:00-04:00,119.29579162597656,32.6814079284668,-0.24988358740456165,0.332,-1.0,0.970037017408431
2022-03-16 00:00:00-04:00,123.64717864990234,33.00402069091797,-0.25138268338155373,-0.138,-1.0,0.9848620159746002
2022-03-17 00:00:00-04:00,124.430419921875,33.48304748535156,-0.25288256731143816,-0.142,-1.0,0.983391603388739
2022-03-18 00:00:00-04:00,126.60612487792969,33.434165954589844,-0.25384924791085606,-0.529,0.0,0.9943940995299245
2022-03-21 00:00:00-04:00,124.65282440185547,33.07245635986328,-0.2547755403809055,-0.543,0.0,0.9943940995299245
2022-03-22 00:00:00-04:00,126.15166473388672,32.955135345458984,-0.25528096421785157,-0.843,0.0,0.9943940995299245
2022-03-23 00:00:00-04:00,124.48844909667969,32.671627044677734,-0.25580053668410224,-0.812,0.0,0.9943940995299245
2022-03-24 00:00:00-04:00,125.2330093383789,32.78894805908203,-0.25622800532241585,-0.899,0.0,0.9943940995299245
2022-03-25 00:00:00-04:00,125.1846694946289,33.05289840698242,-0.2567985558908745,-0.806,0.0,0.9943940995299245
2022-03-28 00:00:00-04:00,125.2717056274414,33.64923858642578,-0.25772413007969625,-0.589,0.0,0.9943940995299245
2022-03-29 00:00:00-04:00,131.40231323242188,34.36289596557617,-0.2580137022871069,-1.077,0.0,0.9943940995299245
2022-03-30 00:00:00-04:00,128.5497589111328,34.646392822265625,-0.25890819037590745,-0.617,0.0,0.9943940995299245
2022-03-31 00:00:00-04:00,126.74151611328125,34.265132904052734,-0.2598387213411821,-0.649,0.0,0.9943940995299245
2022-04-01 00:00:00-04:00,129.5843963623047,34.03050994873047,-0.260034158969682,-1.159,0.0,0.9943940995299245
2022-04-04 00:00:00-04:00,128.9655303955078,34.30423355102539,-0.26043825339684284,-0.939,0.0,0.9943940995299245
2022-04-05 00:00:00-04:00,128.03724670410156,34.069610595703125,-0.2608306751612737,-0.948,0.0,0.9943940995299245
2022-04-06 00:00:00-04:00,129.71011352539062,34.20647430419922,-0.26098618541615703,-1.092,0.0,0.9943940995299245
2022-04-07 00:00:00-04:00,129.7197723388672,34.74415588378906,-0.261465881254588,-0.835,0.0,0.9943940995299245
2022-04-08 00:00:00-04:00,128.1532745361328,34.59751510620117,-0.26210929458260745,-0.742,0.0,0.9943940995299245
2022-04-11 00:00:00-04:00,127.3990478515625,34.76371383666992,-0.26295645534154016,-0.608,0.0,0.9943940995299245
2022-04-12 00:00:00-04:00,124.45943450927734,34.636619567871094,-0.2641854310059167,-0.354,0.0,0.9943940995299245
2022-04-13 00:00:00-04:00,126.27734375,34.68549728393555,-0.26505663043138855,-0.6,0.0,0.9943940995299245
2022-04-14 00:00:00-04:00,124.03397369384766,34.118492126464844,-0.2658414978802505,-0.607,0.0,0.9943940995299245
2022-04-18 00:00:00-04:00,122.312744140625,33.52214813232422,-0.26646118534710844,-0.672,0.0,0.9943940995299245
2022-04-19 00:00:00-04:00,125.35871124267578,33.815433502197266,-0.26666436723607695,-0.913,0.0,0.9943940995299245
2022-04-20 00:00:00-04:00,127.3506851196289,33.815433502197266,-0.2664528728763301,-1.15,0.0,0.9943940995299245
2022-04-21 00:00:00-04:00,128.7528076171875,33.73722457885742,-0.2659168718473893,-1.309,0.0,0.9943940995299245
2022-04-22 00:00:00-04:00,128.4627227783203,32.82805252075195,-0.2648372232338854,-1.688,1.0,0.9943940995299245
2022-04-25 00:00:00-04:00,125.0686264038086,32.65208053588867,-0.26428890066543803,-1.332,1.0,1.0064399560099226
2022-04-26 00:00:00-04:00,121.74224853515625,31.987308502197266,-0.26397900008714165,-1.144,1.0,1.010371057252702
2022-04-27 00:00:00-04:00,125.3297119140625,32.759613037109375,-0.26359778940288486,-1.225,1.0,1.0084418676828173
2022-04-28 00:00:00-04:00,126.5287857055664,33.65901565551758,-0.2636377391538431,-0.644,1.0,1.0170706713309325
2022-04-29 00:00:00-04:00,123.76319885253906,32.78894805908203,-0.26361737638059185,-0.747,1.0,1.0149544257542165
2022-05-02 00:00:00-04:00,126.66412353515625,32.45655822753906,-0.26284906034339456,-1.839,1.0,0.9997482763188191
2022-05-03 00:00:00-04:00,128.81082153320312,31.97752571105957,-0.2613728967212545,-2.65,1.0,0.9867519805237756
2022-05-04 00:00:00-04:00,132.80442810058594,33.30707550048828,-0.26015908660641257,-1.971,1.0,0.993338276671899
2022-05-05 00:00:00-04:00,127.22500610351562,32.671627044677734,-0.25962900012614026,-0.924,1.0,1.006785609310346
2022-05-06 00:00:00-04:00,124.2853775024414,33.267974853515625,-0.26012383562334335,0.614,0.0,1.0265738414994314
2022-05-09 00:00:00-04:00,123.50823211669922,32.95421600341797,-0.2605960088296456,0.438,0.0,1.0265738414994314
2022-05-10 00:00:00-04:00,121.46823120117188,32.238460540771484,-0.2609030686909692,0.18,0.0,1.0265738414994314
2022-05-11 00:00:00-04:00,120.74935913085938,32.552215576171875,-0.26151187043639157,0.687,0.0,1.0265738414994314
2022-05-12 00:00:00-04:00,119.79734802246094,32.581634521484375,-0.2622908814139221,0.884,0.0,1.0265738414994314
2022-05-13 00:00:00-04:00,118.8647689819336,33.38562774658203,-0.2637439329179165,1.796,-1.0,1.0265738414994314
2022-05-16 00:00:00-04:00,117.02877044677734,34.130802154541016,-0.2659952759586406,2.569,-1.0,1.0117724712656562
2022-05-17 00:00:00-04:00,120.77851104736328,34.69948196411133,-0.26784968962714145,1.752,-1.0,1.0215071036753411
2022-05-18 00:00:00-04:00,116.1447525024414,33.72880554199219,-0.26970681417373676,1.71,-1.0,1.020665045806433
2022-05-19 00:00:00-04:00,119.1659164428711,33.6601676940918,-0.2708057701758221,0.755,-1.0,1.0360512021209338
2022-05-20 00:00:00-04:00,116.2613296508789,34.59162902832031,-0.27294235887424173,1.94,-1.0,1.0138928347325258
2022-05-23 00:00:00-04:00,119.30192565917969,34.52299499511719,-0.2743828838798889,0.955,-1.0,1.02980779523929
2022-05-24 00:00:00-04:00,117.99048614501953,34.513187408447266,-0.2758834722804941,1.053,-1.0,1.0272285915090318
2022-05-25 00:00:00-04:00,119.88478088378906,34.6308479309082,-0.2769838572334627,0.566,-1.0,1.035142613659147
2022-05-26 00:00:00-04:00,122.69222259521484,35.54270553588867,-0.27804564946648397,0.552,-1.0,1.0350856497308076
2022-05-27 00:00:00-04:00,126.315673828125,35.89568328857422,-0.278552657159669,-0.05,-1.0,1.045194505699862
2022-05-31 00:00:00-04:00,122.87680053710938,34.76811981201172,-0.27884207942408085,-0.205,0.0,1.0481673504755011
2022-06-01 00:00:00-04:00,121.78880310058594,34.307289123535156,-0.2789758182125958,-0.32,0.0,1.0481673504755011
2022-06-02 00:00:00-04:00,125.1111068725586,34.1111946105957,-0.27830165498458787,-1.142,0.0,1.0481673504755011
2022-06-03 00:00:00-04:00,121.87622833251953,34.238651275634766,-0.2783230423213821,-0.258,0.0,1.0481673504755011
2022-06-06 00:00:00-04:00,123.49851989746094,34.3563117980957,-0.27817768776267837,-0.5,0.0,1.0481673504755011
2022-06-07 00:00:00-04:00,125.10139465332031,34.807334899902344,-0.2780325432970327,-0.47,0.0,1.0481673504755011
2022-06-08 00:00:00-04:00,123.38194274902344,34.160213470458984,-0.27778288084871977,-0.587,0.0,1.0481673504755011
2022-06-09 00:00:00-04:00,120.4482192993164,33.49348068237305,-0.2776471541158507,-0.467,0.0,1.0481673504755011
2022-06-10 00:00:00-04:00,112.58930206298828,33.27777099609375,-0.27890665983989893,1.024,0.0,1.0481673504755011
2022-06-13 00:00:00-04:00,110.0635757446289,32.336509704589844,-0.2800459664137007,0.667,0.0,1.0481673504755011
2022-06-14 00:00:00-04:00,108.32470703125,32.140411376953125,-0.28130024429379913,0.756,0.0,1.0481673504755011
2022-06-15 00:00:00-04:00,110.37444305419922,32.13060760498047,-0.2820592290220781,0.141,0.0,1.0481673504755011
2022-06-16 00:00:00-04:00,105.40068054199219,31.395240783691406,-0.28319402522039344,0.592,0.0,1.0481673504755011
2022-06-17 00:00:00-04:00,106.87725830078125,31.159923553466797,-0.28381677069246775,-0.062,0.0,1.0481673504755011
2022-06-21 00:00:00-04:00,107.44070434570312,31.81684684753418,-0.28470314215920545,0.251,0.0,1.0481673504755011
2022-06-22 00:00:00-04:00,109.51956939697266,32.40514373779297,-0.2855491806129207,0.095,0.0,1.0481673504755011
2022-06-23 00:00:00-04:00,111.09329986572266,33.48367691040039,-0.2867863308640034,0.558,0.0,1.0481673504755011
2022-06-24 00:00:00-04:00,117.55333709716797,34.42494583129883,-0.2872963356896341,-0.582,0.0,1.0481673504755011
2022-06-27 00:00:00-04:00,117.8350601196289,34.59162902832031,-0.2877462129896126,-0.533,0.0,1.0481673504755011
2022-06-28 00:00:00-04:00,115.863037109375,33.83665084838867,-0.2880138795673789,-0.771,0.0,1.0481673504755011
2022-06-29 00:00:00-04:00,113.86188507080078,34.287681579589844,-0.2889895814435802,0.256,0.0,1.0481673504755011
2022-06-30 00:00:00-04:00,111.07386016845703,34.238651275634766,-0.290515662609508,0.89,0.0,1.0481673504755011
2022-07-01 00:00:00-04:00,114.4933090209961,34.31709671020508,-0.2913076406663518,-0.252,0.0,1.0481673504755011
2022-07-05 00:00:00-04:00,115.36761474609375,34.297481536865234,-0.2917536475517483,-0.583,0.0,1.0481673504755011
2022-07-06 00:00:00-04:00,115.98932647705078,35.18972396850586,-0.2926441919960514,0.191,0.0,1.0481673504755011
2022-07-07 00:00:00-04:00,115.69789123535156,35.87607192993164,-0.29406972354084104,0.988,0.0,1.0481673504755011
2022-07-08 00:00:00-04:00,114.50303649902344,35.99372863769531,-0.29577469943387374,1.37,0.0,1.0481673504755011
2022-07-11 00:00:00-04:00,110.90872192382812,36.22904968261719,-0.2983218065678482,2.383,-1.0,1.0481673504755011
2022-07-12 00:00:00-04:00,112.71559143066406,35.19953536987305,-0.2996057017954544,0.441,-1.0,1.073008058469109
2022-07-13 00:00:00-04:00,112.40473937988281,34.640655517578125,-0.30030726976763034,-0.214,0.0,1.0809705338531956
2022-07-14 00:00:00-04:00,111.5595703125,34.473976135253906,-0.30095341006696885,-0.159,0.0,1.0809705338531956
2022-07-15 00:00:00-04:00,113.46360778808594,34.90538787841797,-0.3014366975288734,-0.388,0.0,1.0809705338531956
2022-07-18 00:00:00-04:00,111.6275863647461,34.49358367919922,-0.30196696376744936,-0.256,0.0,1.0809705338531956
2022-07-19 00:00:00-04:00,116.3487548828125,35.7289924621582,-0.30231809410344945,-0.552,0.0,1.0809705338531956
2022-07-20 00:00:00-04:00,116.66932678222656,35.7289924621582,-0.30254797311668824,-0.709,0.0,1.0809705338531956
2022-07-21 00:00:00-04:00,119.43791961669922,35.846656799316406,-0.3022176022021624,-1.533,1.0,1.0809705338531956
2022-07-22 00:00:00-04:00,124.08139038085938,35.75841522216797,-0.3007735527781231,-2.924,1.0,1.063011834030573
2022-07-25 00:00:00-04:00,123.2459487915039,35.77802276611328,-0.2995458088268279,-2.208,1.0,1.0688196052054904
2022-07-26 00:00:00-04:00,122.61450958251953,35.51329040527344,-0.2984009110779567,-1.997,1.0,1.0697182497446351
2022-07-27 00:00:00-04:00,123.30423736572266,34.67007064819336,-0.2966177055812701,-2.53,1.0,1.0580800068077574
2022-07-28 00:00:00-04:00,126.6362533569336,37.81743240356445,-0.2964773847895822,-0.509,1.0,1.0869644609177511
2022-07-29 00:00:00-04:00,125.59683227539062,37.81743240356445,-0.2967363446095303,-0.264,1.0,1.0906354274308485
2022-08-01 00:00:00-04:00,125.6162338256836,38.33709716796875,-0.29737470301815283,0.175,1.0,1.0963654697917409
2022-08-02 00:00:00-04:00,123.03223419189453,37.778221130371094,-0.29814059206103133,0.299,0.0,1.097914118760337
2022-08-03 00:00:00-04:00,124.57681274414062,37.513484954833984,-0.29834026412881404,-0.394,0.0,1.097914118760337
2022-08-04 00:00:00-04:00,124.46995544433594,37.00363540649414,-0.29813049925529195,-0.796,0.0,1.097914118760337
2022-08-05 00:00:00-04:00,123.72195434570312,36.86635971069336,-0.2979592299108495,-0.651,0.0,1.097914118760337
2022-08-08 00:00:00-04:00,124.62538146972656,37.0428466796875,-0.29774216053227837,-0.685,0.0,1.097914118760337
2022-08-09 00:00:00-04:00,124.15682983398438,36.41367721557617,-0.29719828920628455,-1.031,0.0,1.097914118760337
2022-08-10 00:00:00-04:00,130.3553924560547,36.698768615722656,-0.29559196296232276,-2.086,1.0,1.097914118760337
2022-08-11 00:00:00-04:00,130.16017150878906,36.030269622802734,-0.2936148441855658,-2.16,1.0,1.0931536564524835
2022-08-12 00:00:00-04:00,132.3174591064453,36.3448600769043,-0.29157221104488884,-1.994,1.0,1.0925057390635098
2022-08-15 00:00:00-04:00,133.13743591308594,36.27604293823242,-0.289510263078104,-1.848,1.0,1.0920596442631623
2022-08-16 00:00:00-04:00,133.93789672851562,36.8560676574707,-0.28788198463861037,-1.342,1.0,1.0995697679770673
2022-08-17 00:00:00-04:00,130.98989868164062,36.41367721557617,-0.28672251274739263,-0.886,1.0,1.1071154405600445
2022-08-18 00:00:00-04:00,130.2968292236328,36.56113815307617,-0.2859454128021603,-0.52,1.0,1.1131766674149461
2022-08-19 00:00:00-04:00,128.79356384277344,35.9221305847168,-0.2851315903386952,-0.561,1.0,1.111740363715731
2022-08-22 00:00:00-04:00,124.19588470458984,35.78450012207031,-0.2851765228711287,0.311,0.0,1.1281405849892137
2022-08-23 00:00:00-04:00,124.60586547851562,35.2044792175293,-0.2848246540076617,-0.142,0.0,1.1281405849892137
2022-08-24 00:00:00-04:00,124.957275390625,34.988189697265625,-0.2842516817914252,-0.283,0.0,1.1281405849892137
2022-08-25 00:00:00-04:00,129.00831604003906,35.066837310791016,-0.2829826797481453,-0.946,0.0,1.1281405849892137
2022-08-26 00:00:00-04:00,123.03425598144531,33.8969612121582,-0.2821110696875421,-0.392,0.0,1.1281405849892137
2022-08-29 00:00:00-04:00,122.9366455078125,33.46440124511719,-0.2810717860462579,-0.605,0.0,1.1281405849892137
2022-08-30 00:00:00-04:00,124.73275756835938,33.27761459350586,-0.2796331843216433,-1.039,0.0,1.1281405849892137
2022-08-31 00:00:00-04:00,123.95184326171875,33.18913650512695,-0.27836639138253216,-0.712,0.0,1.1281405849892137
2022-09-01 00:00:00-04:00,121.57003784179688,33.58237075805664,-0.277939132620121,0.431,0.0,1.1281405849892137
2022-09-02 00:00:00-04:00,120.80863189697266,33.169471740722656,-0.2774865085330834,0.325,0.0,1.1281405849892137
2022-09-06 00:00:00-04:00,120.74029541015625,35.17498016357422,-0.27845474629449485,2.186,-1.0,1.1281405849892137
2022-09-07 00:00:00-04:00,124.79132843017578,35.35193634033203,-0.2788244820679585,1.18,-1.0,1.1423566692071194
2022-09-08 00:00:00-04:00,124.71324920654297,35.61737060546875,-0.2793030824478937,1.34,-1.0,1.139127196940326
2022-09-09 00:00:00-04:00,125.05490112304688,35.50923156738281,-0.2796114616305552,1.042,-1.0,1.14256280263982
2022-09-12 00:00:00-04:00,128.44212341308594,35.64686584472656,-0.279323897607824,0.271,-1.0,1.1533639114216314
2022-09-13 00:00:00-04:00,121.5212173461914,35.322444915771484,-0.28010641189236435,1.61,-1.0,1.1315410639902044
2022-09-14 00:00:00-04:00,117.29447937011719,35.71567916870117,-0.28201185546821556,2.534,-1.0,1.1118639057055186
2022-09-15 00:00:00-04:00,117.56780242919922,35.19464111328125,-0.2834647451607811,1.749,-1.0,1.1230857472266942
2022-09-16 00:00:00-04:00,114.67839050292969,34.96853256225586,-0.285175634251553,1.926,-1.0,1.1172231191484618
2022-09-19 00:00:00-04:00,116.38666534423828,35.61737060546875,-0.28689486954404,1.795,-1.0,1.117779812876286
2022-09-20 00:00:00-04:00,113.8779525756836,35.15531539916992,-0.2886644136578455,1.747,-1.0,1.1169541278985862
2022-09-21 00:00:00-04:00,110.59808349609375,34.89971160888672,-0.2907966004154598,1.91,-1.0,1.1101638895861397
2022-09-22 00:00:00-04:00,109.25098419189453,34.30986404418945,-0.29267318183504,1.528,-1.0,1.1162457463435922
2022-09-23 00:00:00-04:00,109.64144897460938,34.19188690185547,-0.29422458657955675,1.199,-1.0,1.122300634759291
2022-09-26 00:00:00-04:00,108.51886749267578,34.04442596435547,-0.2957625187519176,1.147,-1.0,1.1220597000815822
2022-09-27 00:00:00-04:00,108.41148376464844,33.759334564208984,-0.2970052808688817,0.858,-1.0,1.1279431457677467
2022-09-28 00:00:00-04:00,110.59808349609375,34.30986404418945,-0.298053326358785,0.678,-1.0,1.1311362670276734
2022-09-29 00:00:00-04:00,108.94837188720703,34.545806884765625,-0.29953159471316626,0.984,-1.0,1.1227022693984576
2022-09-30 00:00:00-04:00,108.05032348632812,34.09358215332031,-0.3008111918691458,0.73,-1.0,1.1275297389377537
2022-10-03 00:00:00-04:00,111.46685028076172,34.7817497253418,-0.3017224074748303,0.386,-1.0,1.1339777404142086
2022-10-04 00:00:00-04:00,116.3085708618164,36.47265625,-0.3026872565607663,0.425,-1.0,1.1323338457673555
2022-10-05 00:00:00-04:00,117.3628158569336,36.05976104736328,-0.30303841734219933,-0.191,-1.0,1.143129137277649
2022-10-06 00:00:00-04:00,114.92243194580078,36.50215530395508,-0.30415779100779355,0.573,-1.0,1.1283889790018997
2022-10-07 00:00:00-04:00,111.6425552368164,35.54855728149414,-0.3052995266315592,0.466,-1.0,1.12958761008819
2022-10-10 00:00:00-04:00,108.10888671875,35.833648681640625,-0.3073580383743982,1.288,-1.0,1.1130607373882115
2022-10-11 00:00:00-04:00,108.11865234375,35.74517059326172,-0.3092926768752691,0.995,-1.0,1.1174063045204177
2022-10-12 00:00:00-04:00,107.07416534423828,35.58788299560547,-0.3111902973083526,0.911,-1.0,1.117949367234323
2022-10-13 00:00:00-04:00,109.54383850097656,35.45024490356445,-0.312264672518406,0.053,-1.0,1.132648088664593
2022-10-14 00:00:00-04:00,107.69890594482422,34.427833557128906,-0.31283119856155106,-0.425,0.0,1.140095574053439
2022-10-17 00:00:00-04:00,110.60783386230469,35.52889633178711,-0.3134392328166019,-0.392,0.0,1.140095574053439
2022-10-18 00:00:00-04:00,113.95604705810547,36.0499267578125,-0.3136073045029285,-1.061,0.0,1.140095574053439
2022-10-19 00:00:00-04:00,111.90611267089844,36.256378173828125,-0.3143449715700145,-0.389,0.0,1.140095574053439
2022-10-20 00:00:00-04:00,105.82469940185547,35.381431579589844,-0.31586261354981965,0.601,0.0,1.140095574053439
2022-10-21 00:00:00-04:00,109.90499877929688,35.81399154663086,-0.3167084212776011,-0.684,0.0,1.140095574053439
2022-10-24 00:00:00-04:00,109.28025817871094,35.666526794433594,-0.3174480437652094,-0.697,0.0,1.140095574053439
2022-10-25 00:00:00-04:00,110.26618957519531,35.332275390625,-0.31763005607298006,-1.56,1.0,1.140095574053439
2022-10-26 00:00:00-04:00,110.12952423095703,38.88123321533203,-0.320431178705468,2.443,-1.0,1.1843705258151045
2022-10-27 00:00:00-04:00,109.68048858642578,40.326377868652344,-0.32449193608355137,3.137,-1.0,1.1693060915826463
2022-10-28 00:00:00-04:00,111.43756866455078,41.16200256347656,-0.32855847100761465,2.642,-1.0,1.171719419167525
2022-10-31 00:00:00-04:00,111.45709228515625,41.36845397949219,-0.3324336449001907,2.163,-1.0,1.1746762828271302
2022-11-01 00:00:00-04:00,111.28137969970703,41.48642349243164,-0.3360943244310099,1.825,-1.0,1.177604291537776
2022-11-02 00:00:00-04:00,107.45486450195312,41.16200256347656,-0.34015570838881787,2.057,-1.0,1.170845692264185
2022-11-03 00:00:00-04:00,107.09369659423828,41.57490158081055,-0.3443482729237387,1.944,-1.0,1.1697398615407657
2022-11-04 00:00:00-04:00,112.70655822753906,41.20132827758789,-0.34647628171313105,0.026,-1.0,1.2014675398185497
2022-11-07 00:00:00-05:00,113.56556701660156,41.04403305053711,-0.3478433134836018,-0.417,0.0,1.2090428525032184
2022-11-08 00:00:00-05:00,113.68272399902344,41.28980255126953,-0.3491588848230425,-0.35,0.0,1.2090428525032184
2022-11-09 00:00:00-05:00,112.05362701416016,40.97423553466797,-0.35054515539201686,-0.262,0.0,1.2090428525032184
2022-11-10 00:00:00-05:00,122.48566436767578,41.43772506713867,-0.34943745941022364,-2.281,1.0,1.2090428525032184
2022-11-11 00:00:00-05:00,127.6673355102539,41.0136833190918,-0.34652051235703524,-2.952,1.0,1.1871983174079934
2022-11-14 00:00:00-05:00,125.57699584960938,41.29966354370117,-0.34444448773554237,-2.005,1.0,1.2022304532960475
2022-11-15 00:00:00-05:00,127.08832550048828,40.895347595214844,-0.3419943354933656,-2.115,1.0,1.194957956348563
2022-11-16 00:00:00-05:00,126.58782958984375,41.44758605957031,-0.34026900641114116,-1.524,1.0,1.2061008121047085
2022-11-17 00:00:00-05:00,124.30121612548828,41.26021957397461,-0.33920799529597745,-1.11,1.0,1.2147623551576394
2022-11-18 00:00:00-05:00,126.0775146484375,41.87162399291992,-0.3383213964245503,-1.008,1.0,1.216189720086341
2022-11-21 00:00:00-05:00,126.64671325683594,41.536338806152344,-0.33716253917551237,-1.132,1.0,1.2116656701049868
2022-11-22 00:00:00-05:00,129.53196716308594,38.99209213256836,-0.33360997185589203,-2.283,1.0,1.174479781784969
2022-11-23 00:00:00-05:00,130.58204650878906,39.16959762573242,-0.33004708766044416,-1.961,1.0,1.1780344797895759
2022-11-25 00:00:00-05:00,130.87644958496094,39.435855865478516,-0.3269484046502619,-1.606,1.0,1.1850230001281097
2022-11-28 00:00:00-05:00,127.87342834472656,39.228763580322266,-0.3247259125641834,-1.129,1.0,1.1981363695122924
2022-11-29 00:00:00-05:00,129.37493896484375,39.278072357177734,-0.3224908297511843,-1.117,1.0,1.1962955501569514
2022-11-30 00:00:00-05:00,132.70181274414062,39.879615783691406,-0.3201432928355539,-1.109,1.0,1.1943551151889118
2022-12-01 00:00:00-05:00,132.4466552734375,39.8303108215332,-0.31803336297113477,-0.943,1.0,1.1981601746064412
2022-12-02 00:00:00-05:00,134.74307250976562,39.919063568115234,-0.315713263612355,-1.011,1.0,1.1941707218929338
2022-12-05 00:00:00-05:00,132.08352661132812,39.0512580871582,-0.31357640849568275,-0.876,1.0,1.1973283366464915
2022-12-06 00:00:00-05:00,129.58102416992188,38.666664123535156,-0.3119215334337472,-0.633,1.0,1.2050992937208131
2022-12-07 00:00:00-05:00,127.02943420410156,38.93292236328125,-0.3111722953045529,-0.208,1.0,1.219849678451261
2022-12-08 00:00:00-05:00,127.93230438232422,38.69624710083008,-0.31022100412486747,-0.319,1.0,1.2147985848091836
2022-12-09 00:00:00-05:00,127.98138427734375,37.97636032104492,-0.3088387705107658,-0.489,1.0,1.2075960298780117
2022-12-12 00:00:00-05:00,129.85581970214844,37.8087158203125,-0.3070367677915112,-0.637,1.0,1.2009978399572394
2022-12-13 00:00:00-05:00,131.57321166992188,37.76926803588867,-0.30497858542443956,-0.709,1.0,1.1971985751019563
2022-12-14 00:00:00-05:00,130.29742431640625,37.601627349853516,-0.3032309055721985,-0.508,1.0,1.2030234310324428
2022-12-15 00:00:00-05:00,126.3719253540039,36.674652099609375,-0.3018390105390388,-0.301,1.0,1.2088943460171286
2022-12-16 00:00:00-05:00,123.8203353881836,36.2506103515625,-0.3008263856967148,-0.063,1.0,1.2153095485362528
2022-12-19 00:00:00-05:00,123.29039001464844,36.42811584472656,-0.3001566285154,0.18,1.0,1.2210221416539826
2022-12-20 00:00:00-05:00,122.43659973144531,36.605621337890625,-0.2998647810115632,0.477,0.0,1.2274256990823909
2022-12-21 00:00:00-05:00,124.78208923339844,36.87187957763672,-0.2993355005136252,0.423,0.0,1.2274256990823909
2022-12-22 00:00:00-05:00,123.51611328125,36.457706451416016,-0.298804407744961,0.63,0.0,1.2274256990823909
2022-12-23 00:00:00-05:00,124.36009979248047,36.605621337890625,-0.2982462278641058,0.716,0.0,1.2274256990823909
2022-12-27 00:00:00-05:00,124.06568145751953,36.50700759887695,-0.2977246587651557,0.851,0.0,1.2274256990823909
2022-12-28 00:00:00-05:00,121.95571899414062,36.03366470336914,-0.2973546488820278,1.13,0.0,1.2274256990823909
2022-12-29 00:00:00-05:00,124.04606628417969,36.15199661254883,-0.29668611386568483,0.944,0.0,1.2274256990823909
2022-12-30 00:00:00-05:00,123.39834594726562,36.03366470336914,-0.29609599111905244,1.04,0.0,1.2274256990823909
2023-01-03 00:00:00-05:00,124.47785949707031,36.04351806640625,-0.29535113616122455,0.794,0.0,1.2274256990823909
2023-01-04 00:00:00-05:00,127.54957580566406,36.42811584472656,-0.29430004106611607,0.408,0.0,1.2274256990823909
2023-01-05 00:00:00-05:00,120.81732940673828,35.80685043334961,-0.2942385963812473,1.565,-1.0,1.2274256990823909
2023-01-06 00:00:00-05:00,126.10694885253906,36.023799896240234,-0.2933596993844644,0.429,-1.0,1.244251925017906
2023-01-09 00:00:00-05:00,126.47006225585938,36.023799896240234,-0.29240850233470067,0.444,-1.0,1.244063237067342
2023-01-10 00:00:00-05:00,127.36311340332031,35.99421691894531,-0.29133588447542386,0.314,-1.0,1.2461714106364095
2023-01-11 00:00:00-05:00,129.6300811767578,37.19731140136719,-0.29071645654952416,0.854,-1.0,1.237852530941213
2023-01-12 00:00:00-05:00,129.16885375976562,37.029666900634766,-0.29017200466463694,0.868,-1.0,1.2373590709358169
2023-01-13 00:00:00-05:00,129.93431091308594,37.256473541259766,-0.28968655777368835,0.923,-1.0,1.236454243164885
2023-01-17 00:00:00-05:00,128.1874542236328,36.71409606933594,-0.2892252283739698,0.923,-1.0,1.2361452536560962
2023-01-18 00:00:00-05:00,125.40034484863281,36.17171859741211,-0.2889841020199803,1.206,-1.0,1.23208558679264
2023-01-19 00:00:00-05:00,121.29820251464844,35.333499908447266,-0.28901834102441215,1.533,-1.0,1.2272116318510864
2023-01-20 00:00:00-05:00,128.56039428710938,35.609619140625,-0.2878405134901565,-0.571,0.0,1.2502285941060884
2023-01-23 00:00:00-05:00,127.87342834472656,35.649070739746094,-0.2868158731317322,-0.152,0.0,1.2502285941060884
2023-01-24 00:00:00-05:00,128.5309600830078,35.81671142578125,-0.28588101868336346,-0.093,0.0,1.2502285941060884
2023-01-25 00:00:00-05:00,125.76346588134766,35.83643341064453,-0.2855834155403338,1.131,0.0,1.2502285941060884
2023-01-26 00:00:00-05:00,125.32185363769531,35.63920211791992,-0.2853209579634492,1.016,0.0,1.2502285941060884
2023-01-27 00:00:00-05:00,124.9783706665039,35.520870208740234,-0.28506997367081904,0.995,0.0,1.2502285941060884
2023-01-30 00:00:00-05:00,125.27277374267578,35.185577392578125,-0.2845571175262528,0.408,0.0,1.2502285941060884
2023-01-31 00:00:00-05:00,127.91268157958984,35.89560317993164,-0.2840363807181578,0.407,0.0,1.2502285941060884
2023-02-01 00:00:00-05:00,129.55157470703125,35.83643341064453,-0.2832065930159297,-0.357,0.0,1.2502285941060884
2023-02-02 00:00:00-05:00,131.926513671875,35.609619140625,-0.28181826924294917,-1.854,1.0,1.2502285941060884
2023-02-03 00:00:00-05:00,128.29541015625,35.185577392578125,-0.2809072172830036,-0.561,1.0,1.2602834417280613
2023-02-06 00:00:00-05:00,127.02943420410156,35.165855407714844,-0.2803439013573081,0.281,0.0,1.2660402976999525
2023-02-07 00:00:00-05:00,128.82537841796875,35.234886169433594,-0.27956856554110965,-0.517,0.0,1.2660402976999525
2023-02-08 00:00:00-05:00,127.95194244384766,35.04751968383789,-0.2788797493250896,-0.172,0.0,1.2660402976999525
2023-02-09 00:00:00-05:00,126.46024322509766,35.04751968383789,-0.27853733169678757,0.915,0.0,1.2660402976999525
2023-02-10 00:00:00-05:00,123.87923431396484,35.57209014892578,-0.27909246074640465,3.029,-1.0,1.2660402976999525
2023-02-13 00:00:00-05:00,126.34248352050781,35.581993103027344,-0.2792261940829685,1.54,-1.0,1.2758408384239026
2023-02-14 00:00:00-05:00,127.36311340332031,35.27516555786133,-0.27891143055494155,0.466,-1.0,1.2836337615343465
2023-02-15 00:00:00-05:00,128.59963989257812,35.54240417480469,-0.2785310219825439,0.402,-1.0,1.2840362529704543
2023-02-16 00:00:00-05:00,127.34735870361328,35.80963897705078,-0.2785923855565103,1.483,-1.0,1.2755043469729201
2023-02-17 00:00:00-05:00,128.0967559814453,35.92840576171875,-0.2786278731975983,1.232,-1.0,1.2768245898608297
2023-02-21 00:00:00-05:00,124.43853759765625,35.017826080322266,-0.27873125991300063,1.323,-1.0,1.2754496562529838
2023-02-22 00:00:00-05:00,126.87406158447266,35.05741500854492,-0.27840131217589437,0.25,-1.0,1.2839380293952805
2023-02-23 00:00:00-05:00,126.38104248046875,34.928749084472656,-0.27806591669202835,0.301,-1.0,1.2832104978147054
2023-02-24 00:00:00-05:00,127.89955139160156,34.7604866027832,-0.27736086171476765,-0.56,0.0,1.290334198914663
2023-02-27 00:00:00-05:00,129.7730255126953,34.74068832397461,-0.2763212912736622,-1.282,0.0,1.290334198914663
2023-02-28 00:00:00-05:00,130.2167510986328,34.839664459228516,-0.27532825040606684,-1.083,0.0,1.290334198914663
2023-03-01 00:00:00-05:00,131.37042236328125,34.196319580078125,-0.2737846477071546,-2.275,1.0,1.290334198914663
2023-03-02 00:00:00-05:00,132.9579315185547,34.60212326049805,-0.2723129386950021,-1.831,1.0,1.2926904687191525
2023-03-03 00:00:00-05:00,135.5413818359375,34.958438873291016,-0.27075356846460963,-1.876,1.0,1.2907948742901523
2023-03-06 00:00:00-05:00,131.7747039794922,34.958438873291016,-0.27000722124816695,-0.167,1.0,1.3066470712455485
2023-03-07 00:00:00-05:00,129.0828094482422,34.75059127807617,-0.26974243609751974,0.656,0.0,1.3145982706367447
2023-03-08 00:00:00-05:00,129.37863159179688,34.67140579223633,-0.2694371821367095,0.483,0.0,1.3145982706367447
2023-03-09 00:00:00-05:00,125.6218032836914,34.45366287231445,-0.2696826183493004,1.596,-1.0,1.3145982706367447
2023-03-10 00:00:00-05:00,124.24134063720703,34.315093994140625,-0.27011293744140397,1.734,-1.0,1.3119425597823087
2023-03-13 00:00:00-04:00,122.96934509277344,34.681304931640625,-0.27100069653717807,2.314,-1.0,1.3031106111037047
2023-03-14 00:00:00-04:00,127.35723876953125,35.47311782836914,-0.2715908006175413,1.559,-1.0,1.3098540984515328
2023-03-15 00:00:00-04:00,123.67929077148438,35.77994918823242,-0.2729819613795585,2.624,-1.0,1.2935521838939779
2023-03-16 00:00:00-04:00,124.78366088867188,36.11646270751953,-0.27435584109230876,2.209,-1.0,1.2954909793585068
2023-03-17 00:00:00-04:00,120.78032684326172,35.70076370239258,-0.2760788592412552,2.391,-1.0,1.288618246317615
2023-03-20 00:00:00-04:00,123.56096649169922,36.18574905395508,-0.27750566416016004,1.787,-1.0,1.2951310573699013
2023-03-21 00:00:00-04:00,124.83296203613281,36.39359664916992,-0.27868923323251243,1.419,-1.0,1.2992456070086376
2023-03-22 00:00:00-04:00,121.88469696044922,36.00758743286133,-0.2800490809412533,1.542,-1.0,1.2953977178248701
2023-03-23 00:00:00-04:00,121.78609466552734,35.79973602294922,-0.2811933998225444,1.199,-1.0,1.299960487828011
2023-03-24 00:00:00-04:00,123.68916320800781,36.24513244628906,-0.28216318658875983,0.957,-1.0,1.3029077653037542
2023-03-27 00:00:00-04:00,124.24134063720703,36.36390686035156,-0.2830104060607403,0.788,-1.0,1.3048971175442694
2023-03-28 00:00:00-04:00,124.45826721191406,36.472774505615234,-0.28380722033200906,0.698,-1.0,1.3056171538570664
2023-03-29 00:00:00-04:00,126.4500732421875,36.63113784790039,-0.28425374389145974,0.261,-1.0,1.3120021106982358
2023-03-30 00:00:00-04:00,128.01788330078125,36.81919479370117,-0.28445322696234654,-0.004,-1.0,1.3158682820636964
2023-03-31 00:00:00-04:00,131.71554565429688,37.145816802978516,-0.28412011558751243,-0.575,0.0,1.3250049927247303
2023-04-03 00:00:00-04:00,138.08535766601562,37.06663513183594,-0.2824987876380385,-1.88,1.0,1.3250049927247303
2023-04-04 00:00:00-04:00,136.38938903808594,37.135921478271484,-0.2812880506763081,-1.233,1.0,1.3344556043544382
2023-04-05 00:00:00-04:00,137.01058959960938,38.165279388427734,-0.28079996705702215,-0.477,1.0,1.3464796141407593
2023-04-06 00:00:00-04:00,136.1428680419922,38.38302230834961,-0.2807283374124964,-0.088,1.0,1.3526302347841175
2023-04-10 00:00:00-04:00,136.4091033935547,38.15537643432617,-0.2805003763955665,-0.301,1.0,1.349080166997161
2023-04-11 00:00:00-04:00,137.35569763183594,38.3038444519043,-0.2802033755791916,-0.35,1.0,1.3480871222882083
2023-04-12 00:00:00-04:00,136.0836944580078,38.76902770996094,-0.2804665035385844,0.271,0.0,1.3583007540217664
2023-04-13 00:00:00-04:00,137.3458251953125,38.89769744873047,-0.2806061264947076,0.057,0.0,1.3583007540217664
2023-04-14 00:00:00-04:00,136.4879913330078,38.40281677246094,-0.28055682396946213,-0.167,0.0,1.3583007540217664
2023-04-17 00:00:00-04:00,138.9629364013672,38.57107925415039,-0.2801548623497465,-0.585,0.0,1.3583007540217664
2023-04-18 00:00:00-04:00,139.63345336914062,38.79872131347656,-0.2797867831954127,-0.535,0.0,1.3583007540217664
2023-04-19 00:00:00-04:00,138.5882568359375,38.74923324584961,-0.27961235026103126,-0.37,0.0,1.3583007540217664
2023-04-20 00:00:00-04:00,139.47569274902344,39.49156188964844,-0.2797874343480048,-0.001,0.0,1.3583007540217664
2023-04-21 00:00:00-04:00,139.998291015625,39.22431945800781,-0.2797103799211302,-0.467,0.0,1.3583007540217664
2023-04-24 00:00:00-04:00,140.96461486816406,39.50144958496094,-0.27962422742645965,-0.477,0.0,1.3583007540217664
2023-04-25 00:00:00-04:00,138.46990966796875,39.31340026855469,-0.2798697789641251,-0.002,0.0,1.3583007540217664
2023-04-26 00:00:00-04:00,135.7188720703125,38.9174919128418,-0.2803588276661759,0.29,0.0,1.3583007540217664
2023-04-27 00:00:00-04:00,136.99085998535156,41.17415237426758,-0.28203467765461765,1.88,-1.0,1.3583007540217664
2023-04-28 00:00:00-04:00,138.3022918701172,41.817501068115234,-0.2838322131156282,1.761,-1.0,1.35799391434853
2023-05-01 00:00:00-04:00,137.8092803955078,40.8475341796875,-0.2849525479745917,0.819,-1.0,1.3702813354651253
2023-05-02 00:00:00-04:00,137.65151977539062,41.38200759887695,-0.286287187118669,1.138,-1.0,1.3653832884235146
2023-05-03 00:00:00-04:00,136.4091033935547,41.2236442565918,-0.28764770039638404,1.151,-1.0,1.3652374029281562
2023-05-04 00:00:00-04:00,133.60873413085938,41.41169738769531,-0.2895262690856447,1.756,-1.0,1.3559661585135308
2023-05-05 00:00:00-04:00,136.10342407226562,41.342411041259766,-0.2907842150663816,0.927,-1.0,1.3678641518964514
2023-05-08 00:00:00-04:00,136.74435424804688,41.24343490600586,-0.2917013824268576,0.574,-1.0,1.3729270890161618
2023-05-09 00:00:00-04:00,135.83311462402344,41.273223876953125,-0.2926994148151388,0.726,-1.0,1.3709521411619676
2023-05-10 00:00:00-04:00,135.5557861328125,41.968223571777344,-0.2941118949612442,1.251,-1.0,1.363807387488349
2023-05-11 00:00:00-04:00,135.93215942382812,42.09729766845703,-0.2954480053427238,1.081,-1.0,1.3657918968528828
2023-05-12 00:00:00-04:00,136.78396606445312,42.2760124206543,-0.2966155705755104,0.854,-1.0,1.3686000910801313
2023-05-15 00:00:00-04:00,139.2898712158203,42.027801513671875,-0.29703657461874183,-0.08,-1.0,1.3811914335732673
2023-05-16 00:00:00-04:00,138.0022430419922,41.6802978515625,-0.29738193834221,-0.078,-1.0,1.3813448670687247
2023-05-17 00:00:00-04:00,141.0529022216797,41.362579345703125,-0.2969151630269696,-1.078,0.0,1.3952689797319495
2023-05-18 00:00:00-04:00,141.2113800048828,40.86614990234375,-0.2960831832394903,-1.38,0.0,1.3952689797319495
2023-05-19 00:00:00-04:00,141.04299926757812,40.756935119628906,-0.2952606474425015,-1.294,0.0,1.3952689797319495
2023-05-22 00:00:00-04:00,139.33937072753906,40.399505615234375,-0.29460438100586683,-1.192,0.0,1.3952689797319495
2023-05-23 00:00:00-04:00,135.5756072998047,39.55557632446289,-0.2941850078064151,-0.958,0.0,1.3952689797319495
2023-05-24 00:00:00-04:00,132.138671875,39.61514663696289,-0.29449576239232705,-0.026,0.0,1.3952689797319495
2023-05-25 00:00:00-04:00,131.7721710205078,39.15842819213867,-0.29461869497784066,-0.377,0.0,1.3952689797319495
2023-05-26 00:00:00-04:00,132.45559692382812,39.04922103881836,-0.2945191670521599,-0.664,0.0,1.3952689797319495
2023-05-30 00:00:00-04:00,133.06971740722656,39.138572692871094,-0.2943515793512384,-0.737,0.0,1.3952689797319495
2023-05-31 00:00:00-04:00,130.0388641357422,39.03928756713867,-0.2946987812665132,-0.027,0.0,1.3952689797319495
2023-06-01 00:00:00-04:00,133.69369506835938,39.932865142822266,-0.29494212335450387,-0.238,0.0,1.3952689797319495
2023-06-02 00:00:00-04:00,138.2498779296875,40.33993911743164,-0.2945575387445381,-1.055,0.0,1.3952689797319495
2023-06-05 00:00:00-04:00,136.60568237304688,40.87607955932617,-0.2948072853753028,-0.154,0.0,1.3952689797319495
2023-06-06 00:00:00-04:00,137.89329528808594,41.09450912475586,-0.2949837960690417,-0.356,0.0,1.3952689797319495
2023-06-07 00:00:00-04:00,140.49822998046875,40.856224060058594,-0.2944984166061933,-1.235,0.0,1.3952689797319495
2023-06-08 00:00:00-04:00,139.82470703125,40.81650924682617,-0.29410460698957147,-0.994,0.0,1.3952689797319495
2023-06-09 00:00:00-04:00,138.33900451660156,40.50872039794922,-0.2938353879317343,-0.828,0.0,1.3952689797319495
2023-06-12 00:00:00-04:00,138.6559600830078,40.667579650878906,-0.2936416568792787,-0.735,0.0,1.3952689797319495
2023-06-13 00:00:00-04:00,139.97329711914062,40.59807586669922,-0.29318290663695534,-1.057,0.0,1.3952689797319495
2023-06-14 00:00:00-04:00,139.35919189453125,40.59807586669922,-0.2928578143464782,-0.811,0.0,1.3952689797319495
2023-06-15 00:00:00-04:00,139.92376708984375,41.34272384643555,-0.29293753095878483,-0.245,0.0,1.3952689797319495
2023-06-16 00:00:00-04:00,141.71652221679688,40.796653747558594,-0.2923685019407522,-1.144,0.0,1.3952689797319495
2023-06-20 00:00:00-04:00,140.68641662597656,40.61793518066406,-0.2918766995927139,-0.899,0.0,1.3952689797319495
2023-06-21 00:00:00-04:00,140.98355102539062,40.925724029541016,-0.2915737453570859,-0.591,0.0,1.3952689797319495
2023-06-22 00:00:00-04:00,139.4285430908203,41.303009033203125,-0.29183307168932177,0.279,0.0,1.3952689797319495
2023-06-23 00:00:00-04:00,137.5664520263672,41.09450912475586,-0.2923239862768966,0.694,0.0,1.3952689797319495
2023-06-26 00:00:00-04:00,139.73558044433594,41.37250900268555,-0.2925673683675707,0.287,0.0,1.3952689797319495
2023-06-27 00:00:00-04:00,143.0536346435547,41.98808670043945,-0.2925475107956363,-0.113,0.0,1.3952689797319495
2023-06-28 00:00:00-04:00,141.93441772460938,42.06751251220703,-0.29276276088027314,0.429,0.0,1.3952689797319495
2023-06-29 00:00:00-04:00,143.98468017578125,42.19658279418945,-0.2926834506876006,-0.123,0.0,1.3952689797319495
2023-06-30 00:00:00-04:00,146.88677978515625,42.524227142333984,-0.2922654010322638,-0.806,0.0,1.3952689797319495
2023-07-03 00:00:00-04:00,147.64942932128906,42.01786804199219,-0.2914109485689449,-1.845,1.0,1.3952689797319495
2023-07-05 00:00:00-04:00,144.78697204589844,42.71287155151367,-0.2915449695939997,0.969,0.0,1.4130464801695133
2023-07-06 00:00:00-04:00,143.8460235595703,43.169586181640625,-0.29219147123883477,2.04,-1.0,1.4130464801695133
2023-07-07 00:00:00-04:00,145.37135314941406,42.85187530517578,-0.29234956746389973,0.594,-1.0,1.422259971056628
2023-07-10 00:00:00-04:00,146.49057006835938,42.97101593017578,-0.29232901474996564,0.175,-1.0,1.424649999253024
2023-07-11 00:00:00-04:00,149.1549530029297,43.38801574707031,-0.2920762417974977,-0.502,0.0,1.4283781702011304
2023-07-12 00:00:00-04:00,150.22463989257812,43.6064453125,-0.29177308421013115,-0.64,0.0,1.4283781702011304
2023-07-13 00:00:00-04:00,150.06617736816406,43.715660095214844,-0.29158907239534654,-0.286,0.0,1.4283781702011304
2023-07-14 00:00:00-04:00,148.31304931640625,44.222023010253906,-0.2920456973444608,1.629,-1.0,1.4283781702011304
2023-07-17 00:00:00-04:00,149.75912475585938,44.271663665771484,-0.2922823173686907,0.788,-1.0,1.4330135488846725
2023-07-18 00:00:00-04:00,149.92750549316406,44.16244888305664,-0.29238582265037916,0.42,-1.0,1.4349902478767995
2023-07-19 00:00:00-04:00,148.8280792236328,44.04330825805664,-0.29259156902329536,0.728,-1.0,1.4330300142998622
2023-07-20 00:00:00-04:00,148.29324340820312,44.0532341003418,-0.292885724172872,0.985,-1.0,1.431626443677907
2023-07-21 00:00:00-04:00,147.9267578125,44.20216369628906,-0.29331317557529074,1.327,-1.0,1.429422605074385
2023-07-24 00:00:00-04:00,144.47991943359375,44.430519104003906,-0.2944551636188377,2.892,-1.0,1.4170698114993237
2023-07-25 00:00:00-04:00,145.6090545654297,44.509952545166016,-0.29539832602367777,2.044,-1.0,1.4215301350043883
2023-07-26 00:00:00-04:00,144.78697204589844,44.48016357421875,-0.2963733244404857,1.976,-1.0,1.4207075602633217
2023-07-27 00:00:00-04:00,143.4201202392578,40.5285758972168,-0.29513734483343945,-2.747,1.0,1.4613705869859503
2023-07-28 00:00:00-04:00,144.02432250976562,40.33993911743164,-0.2936266835752074,-2.586,1.0,1.459562663800352
2023-07-31 00:00:00-04:00,142.5286865234375,40.538509368896484,-0.29260857460546547,-1.542,1.0,1.4690811963129367
2023-08-01 00:00:00-04:00,144.16297912597656,40.33993911743164,-0.2913049397968354,-1.936,1.0,1.4631439829677313
2023-08-02 00:00:00-04:00,140.41900634765625,41.005149841308594,-0.2911514451476864,0.004,1.0,1.4848491721856587
2023-08-03 00:00:00-04:00,138.94320678710938,40.399505615234375,-0.29098777916912144,-0.172,1.0,1.4829535611117697
2023-08-04 00:00:00-04:00,139.23043823242188,39.992431640625,-0.2905384745406866,-0.617,1.0,1.477631887567863
2023-08-07 00:00:00-04:00,141.89479064941406,40.131431579589844,-0.2897191679642341,-1.166,1.0,1.4712454429001822
2023-08-08 00:00:00-04:00,141.96414184570312,40.16122055053711,-0.28894841215115635,-1.012,1.0,1.4727127259371808
2023-08-09 00:00:00-04:00,138.74038696289062,40.599483489990234,-0.28908237103679757,0.426,0.0,1.4894544984797675
2023-08-10 00:00:00-04:00,138.75033569335938,40.60944747924805,-0.289277031224947,0.41,0.0,1.4894544984797675
2023-08-11 00:00:00-04:00,135.95443725585938,40.86842346191406,-0.29011630081858664,1.395,0.0,1.4894544984797675
2023-08-14 00:00:00-04:00,138.92942810058594,41.20708465576172,-0.2906129087360795,0.751,0.0,1.4894544984797675
2023-08-15 00:00:00-04:00,138.17323303222656,40.76881790161133,-0.29090731782930324,0.463,0.0,1.4894544984797675
2023-08-16 00:00:00-04:00,136.9494171142578,41.217044830322266,-0.29165907399497715,1.154,0.0,1.4894544984797675
2023-08-17 00:00:00-04:00,137.37725830078125,40.171180725097656,-0.2916586131299671,-0.053,0.0,1.4894544984797675
2023-08-18 00:00:00-04:00,138.82992553710938,40.15126037597656,-0.2913255349703841,-0.467,0.0,1.4894544984797675
2023-08-21 00:00:00-04:00,137.90460205078125,39.70302963256836,-0.2908841882270736,-0.617,0.0,1.4894544984797675
2023-08-22 00:00:00-04:00,137.66580200195312,39.18507766723633,-0.2901928208292121,-0.938,0.0,1.4894544984797675
2023-08-23 00:00:00-04:00,137.1583709716797,39.45401382446289,-0.2897994084536753,-0.412,0.0,1.4894544984797675
2023-08-24 00:00:00-04:00,136.56137084960938,38.886260986328125,-0.2892157639446776,-0.709,0.0,1.4894544984797675
2023-08-25 00:00:00-04:00,137.67575073242188,39.21495819091797,-0.2886704379264843,-0.6,0.0,1.4894544984797675
2023-08-28 00:00:00-04:00,138.13343811035156,39.62334442138672,-0.28834725764979213,-0.265,0.0,1.4894544984797675
2023-08-29 00:00:00-04:00,140.2527618408203,39.62334442138672,-0.28768784348594734,-0.782,0.0,1.4894544984797675
2023-08-30 00:00:00-04:00,141.32733154296875,39.89228057861328,-0.28703568528671525,-0.704,0.0,1.4894544984797675
2023-08-31 00:00:00-04:00,141.04873657226562,39.4141731262207,-0.28619411880098994,-0.934,0.0,1.4894544984797675
2023-09-01 00:00:00-04:00,141.2974853515625,39.21495819091797,-0.285244318182911,-1.013,0.0,1.4894544984797675
2023-09-05 00:00:00-04:00,135.7852783203125,37.820472717285156,-0.2844788247305138,-0.691,0.0,1.4894544984797675
2023-09-06 00:00:00-04:00,136.3623809814453,37.9300422668457,-0.2837569879011849,-0.61,0.0,1.4894544984797675
2023-09-07 00:00:00-04:00,135.49673461914062,35.5793342590332,-0.28178042987711865,-2.198,1.0,1.4894544984797675
2023-09-08 00:00:00-04:00,135.01914978027344,35.96780014038086,-0.2801972655950883,-1.412,1.0,1.499438231100958
2023-09-11 00:00:00-04:00,135.6658935546875,35.97775650024414,-0.27866899360514363,-1.332,1.0,1.4999271594124344
2023-09-12 00:00:00-04:00,133.16847229003906,35.88811111450195,-0.277653444775477,-0.577,1.0,1.510104473621222
2023-09-13 00:00:00-04:00,132.3326873779297,36.505672454833984,-0.27729793665858016,0.41,0.0,1.5223537890421435
2023-09-14 00:00:00-04:00,133.71571350097656,36.92401885986328,-0.277046197818653,0.442,0.0,1.5223537890421435
2023-09-15 00:00:00-04:00,133.12867736816406,36.88417434692383,-0.27690154766756925,0.555,0.0,1.5223537890421435
2023-09-18 00:00:00-04:00,131.82525634765625,38.04956817626953,-0.2777490410102083,1.988,-1.0,1.5223537890421435
2023-09-19 00:00:00-04:00,131.54666137695312,38.05952835083008,-0.2786637646716919,1.812,-1.0,1.5227953119135282
2023-09-20 00:00:00-04:00,130.14373779296875,38.527679443359375,-0.28006009549774213,2.273,-1.0,1.51376077243257
2023-09-21 00:00:00-04:00,127.64631652832031,37.79058837890625,-0.28136127679351713,1.902,-1.0,1.5165252137096925
2023-09-22 00:00:00-04:00,129.4770965576172,37.28260040283203,-0.28189192536843616,0.849,-1.0,1.5313231050744225
2023-09-25 00:00:00-04:00,131.38746643066406,37.11326599121094,-0.2818578292562051,0.178,-1.0,1.5408094408822168
2023-09-26 00:00:00-04:00,127.9647216796875,37.01366424560547,-0.2823400108600453,0.869,-1.0,1.5298251915061065
2023-09-27 00:00:00-04:00,127.38762664794922,37.29256057739258,-0.28311454432245786,1.145,-1.0,1.5251472004297215
2023-09-28 00:00:00-04:00,129.90493774414062,37.50173568725586,-0.28352301116391143,0.635,-1.0,1.532634801089705
2023-09-29 00:00:00-04:00,129.1487579345703,37.1829948425293,-0.2837984795661484,0.545,-1.0,1.5345298706479586
2023-10-02 00:00:00-04:00,128.7209014892578,36.47578811645508,-0.2836568877596201,0.045,-1.0,1.5423058489643457
2023-10-03 00:00:00-04:00,128.0045166015625,36.127166748046875,-0.2833959439084109,-0.039,-1.0,1.5438529073991822
2023-10-04 00:00:00-04:00,132.5515899658203,35.81838607788086,-0.28210047929782595,-1.298,0.0,1.5633265110222174
2023-10-05 00:00:00-04:00,130.67108154296875,35.71878433227539,-0.2811106634403615,-0.736,0.0,1.5633265110222174
2023-10-06 00:00:00-04:00,132.46205139160156,35.93791961669922,-0.28004606556898765,-0.837,0.0,1.5633265110222174
2023-10-09 00:00:00-04:00,128.1139678955078,36.24669647216797,-0.2800671736233922,0.543,0.0,1.5633265110222174
2023-10-10 00:00:00-04:00,129.6263427734375,36.47578811645508,-0.2800520951151539,0.342,0.0,1.5633265110222174
2023-10-11 00:00:00-04:00,131.8551025390625,36.176971435546875,-0.27942925944089275,-0.419,0.0,1.5633265110222174
2023-10-12 00:00:00-04:00,129.40744018554688,35.61917495727539,-0.2788903179497813,-0.244,0.0,1.5633265110222174
2023-10-13 00:00:00-04:00,127.81547546386719,35.768585205078125,-0.27879412590334296,0.294,0.0,1.5633265110222174
2023-10-16 00:00:00-04:00,129.6959991455078,36.2964973449707,-0.27874665363834533,0.293,0.0,1.5633265110222174
2023-10-17 00:00:00-04:00,130.79046630859375,36.3662223815918,-0.2785524446484329,0.083,0.0,1.5633265110222174
2023-10-18 00:00:00-04:00,127.13888549804688,35.77854537963867,-0.2786453143560417,0.44,0.0,1.5633265110222174
2023-10-19 00:00:00-04:00,123.71614074707031,32.79035949707031,-0.27740795040109684,-1.255,0.0,1.5633265110222174
2023-10-20 00:00:00-04:00,124.09423828125,32.91984939575195,-0.27616738851937533,-1.079,0.0,1.5633265110222174
2023-10-23 00:00:00-04:00,123.06940460205078,33.03937530517578,-0.2752929537398181,-0.619,0.0,1.5633265110222174
2023-10-24 00:00:00-04:00,122.2336196899414,33.52744674682617,-0.27500052579649636,0.04,0.0,1.5633265110222174
2023-10-25 00:00:00-04:00,120.87049865722656,34.19480895996094,-0.27548400839619847,0.898,0.0,1.5633265110222174
2023-10-26 00:00:00-04:00,121.39783477783203,35.569374084472656,-0.2768299574045842,1.818,-1.0,1.5633265110222174
2023-10-27 00:00:00-04:00,120.11431121826172,35.95783615112305,-0.27865374124884984,2.155,-1.0,1.555768807313287
2023-10-30 00:00:00-04:00,121.20878601074219,36.70488357543945,-0.2806792340720816,2.124,-1.0,1.552989612789688
2023-10-31 00:00:00-04:00,122.15401458740234,37.461891174316406,-0.282896007881802,2.089,-1.0,1.5499221661693503
2023-11-01 00:00:00-04:00,122.35301971435547,37.073429107666016,-0.2846465668416641,1.435,-1.0,1.5590868212659854
2023-11-02 00:00:00-04:00,124.2932357788086,37.54157638549805,-0.2861512021671338,1.146,-1.0,1.562795631310181
2023-11-03 00:00:00-04:00,127.66622161865234,37.96988296508789,-0.2871370257302807,0.621,-1.0,1.5716761782068622
2023-11-06 00:00:00-05:00,127.1090316772461,37.85035705566406,-0.2880150832414722,0.569,-1.0,1.5726316629911934
2023-11-07 00:00:00-05:00,127.16873168945312,38.05952835083008,-0.28893676697333764,0.659,-1.0,1.5716321417212544
2023-11-08 00:00:00-05:00,128.90000915527344,37.94000244140625,-0.28936020895285813,0.14,-1.0,1.5805948001380554
2023-11-09 00:00:00-05:00,127.37000274658203,37.86000061035156,-0.2899462167274112,0.376,-1.0,1.576742953715995
2023-11-10 00:00:00-05:00,128.80999755859375,38.400001525878906,-0.29057851779299726,0.388,-1.0,1.5762018290558177
2023-11-13 00:00:00-05:00,129.27999877929688,38.72999954223633,-0.29128946681257395,0.467,-1.0,1.57487289779882
2023-11-14 00:00:00-05:00,133.50999450683594,39.47999954223633,-0.29161814380594314,0.048,-1.0,1.58158133367593
2023-11-15 00:00:00-05:00,133.6199951171875,39.029998779296875,-0.2915581840641628,-0.332,0.0,1.5876600522573967
2023-11-16 00:00:00-05:00,135.16000366210938,39.63999938964844,-0.29157647887350063,-0.193,0.0,1.5876600522573967
2023-11-17 00:00:00-05:00,135.8699951171875,39.439998626708984,-0.2913295370539983,-0.5,0.0,1.5876600522573967
2023-11-20 00:00:00-05:00,135.55999755859375,39.77000045776367,-0.29136068878693006,-0.165,0.0,1.5876600522573967
2023-11-21 00:00:00-05:00,136.5800018310547,40.08000183105469,-0.29142167557327725,-0.217,0.0,1.5876600522573967
2023-11-22 00:00:00-05:00,136.63999938964844,40.02000045776367,-0.2914286390937226,-0.326,0.0,1.5876600522573967
2023-11-24 00:00:00-05:00,136.4499969482422,40.130001068115234,-0.29153856634293085,-0.239,0.0,1.5876600522573967
2023-11-27 00:00:00-05:00,137.2899932861328,40.27000045776367,-0.2915786750160402,-0.339,0.0,1.5876600522573967
2023-11-28 00:00:00-05:00,138.0800018310547,39.970001220703125,-0.29126432150049786,-0.776,0.0,1.5876600522573967
2023-11-29 00:00:00-05:00,139.5500030517578,40.189998626708984,-0.2908147618402279,-0.925,0.0,1.5876600522573967
2023-11-30 00:00:00-05:00,141.99000549316406,40.7400016784668,-0.29029393217223187,-1.005,0.0,1.5876600522573967
2023-12-01 00:00:00-05:00,143.6300048828125,40.90999984741211,-0.2896215944335441,-1.156,0.0,1.5876600522573967
2023-12-04 00:00:00-05:00,143.14999389648438,41.130001068115234,-0.2892308394131908,-0.76,0.0,1.5876600522573967
2023-12-05 00:00:00-05:00,142.64999389648438,40.9900016784668,-0.2889031015651351,-0.707,0.0,1.5876600522573967
2023-12-06 00:00:00-05:00,142.6999969482422,41.349998474121094,-0.28882995025223457,-0.377,0.0,1.5876600522573967
2023-12-07 00:00:00-05:00,144.97999572753906,41.36000061035156,-0.28837556445602336,-0.976,0.0,1.5876600522573967
2023-12-08 00:00:00-05:00,143.97999572753906,41.43000030517578,-0.28815902374935987,-0.675,0.0,1.5876600522573967
2023-12-11 00:00:00-05:00,145.83999633789062,41.630001068115234,-0.2877716628073009,-0.985,0.0,1.5876600522573967
2023-12-12 00:00:00-05:00,145.3699951171875,42.04999923706055,-0.2877534248612966,-0.432,0.0,1.5876600522573967
2023-12-13 00:00:00-05:00,147.47000122070312,43.470001220703125,-0.2882711480050259,0.318,0.0,1.5876600522573967
2023-12-14 00:00:00-05:00,149.14999389648438,42.7400016784668,-0.288031066116431,-0.829,0.0,1.5876600522573967
2023-12-15 00:00:00-05:00,149.74000549316406,42.35499954223633,-0.287415960718783,-1.261,0.0,1.5876600522573967
